"VinDorgeStHoublon100x - RawData"
"Wavelength nm.","Abs."
190.00,4.000
191.00,4.000
192.00,4.000
193.00,4.000
194.00,4.000
195.00,4.000
196.00,4.000
197.00,4.000
198.00,4.000
199.00,4.000
200.00,4.000
201.00,4.000
202.00,3.999
203.00,3.944
204.00,3.897
205.00,3.719
206.00,3.424
207.00,3.128
208.00,3.000
209.00,2.860
210.00,2.707
211.00,2.595
212.00,2.476
213.00,2.356
214.00,2.248
215.00,2.145
216.00,2.045
217.00,1.948
218.00,1.858
219.00,1.765
220.00,1.679
221.00,1.603
222.00,1.529
223.00,1.457
224.00,1.384
225.00,1.316
226.00,1.247
227.00,1.178
228.00,1.111
229.00,1.050
230.00,0.992
231.00,0.941
232.00,0.895
233.00,0.854
234.00,0.820
235.00,0.790
236.00,0.765
237.00,0.744
238.00,0.727
239.00,0.714
240.00,0.703
241.00,0.695
242.00,0.691
243.00,0.688
244.00,0.688
245.00,0.689
246.00,0.691
247.00,0.694
248.00,0.698
249.00,0.703
250.00,0.708
251.00,0.713
252.00,0.719
253.00,0.724
254.00,0.730
255.00,0.735
256.00,0.740
257.00,0.744
258.00,0.747
259.00,0.748
260.00,0.749
261.00,0.750
262.00,0.751
263.00,0.751
264.00,0.751
265.00,0.751
266.00,0.749
267.00,0.747
268.00,0.744
269.00,0.740
270.00,0.734
271.00,0.728
272.00,0.721
273.00,0.713
274.00,0.705
275.00,0.696
276.00,0.687
277.00,0.677
278.00,0.666
279.00,0.654
280.00,0.643
281.00,0.632
282.00,0.620
283.00,0.608
284.00,0.595
285.00,0.581
286.00,0.569
287.00,0.556
288.00,0.543
289.00,0.530
290.00,0.516
291.00,0.502
292.00,0.490
293.00,0.479
294.00,0.470
295.00,0.461
296.00,0.453
297.00,0.446
298.00,0.439
299.00,0.433
300.00,0.426
301.00,0.420
302.00,0.415
303.00,0.410
304.00,0.404
305.00,0.399
306.00,0.394
307.00,0.388
308.00,0.383
309.00,0.378
310.00,0.373
311.00,0.368
312.00,0.363
313.00,0.358
314.00,0.353
315.00,0.348
316.00,0.344
317.00,0.339
318.00,0.334
319.00,0.328
320.00,0.323
321.00,0.318
322.00,0.312
323.00,0.307
324.00,0.301
325.00,0.295
326.00,0.289
327.00,0.284
328.00,0.277
329.00,0.271
330.00,0.265
331.00,0.259
332.00,0.253
333.00,0.247
334.00,0.240
335.00,0.234
336.00,0.229
337.00,0.223
338.00,0.217
339.00,0.212
340.00,0.207
341.00,0.200
342.00,0.195
343.00,0.189
344.00,0.185
345.00,0.180
346.00,0.175
347.00,0.171
348.00,0.166
349.00,0.162
350.00,0.158
351.00,0.154
352.00,0.150
353.00,0.147
354.00,0.143
355.00,0.140
356.00,0.137
357.00,0.133
358.00,0.130
359.00,0.127
360.00,0.125
361.00,0.122
362.00,0.119
363.00,0.117
364.00,0.115
365.00,0.113
366.00,0.111
367.00,0.109
368.00,0.107
369.00,0.105
370.00,0.103
371.00,0.101
372.00,0.099
373.00,0.098
374.00,0.096
375.00,0.094
376.00,0.093
377.00,0.091
378.00,0.089
379.00,0.088
380.00,0.086
381.00,0.085
382.00,0.084
383.00,0.082
384.00,0.081
385.00,0.080
386.00,0.079
387.00,0.078
388.00,0.077
389.00,0.076
390.00,0.075
391.00,0.074
392.00,0.073
393.00,0.072
394.00,0.071
395.00,0.070
396.00,0.069
397.00,0.069
398.00,0.068
399.00,0.067
400.00,0.066
401.00,0.066
402.00,0.065
403.00,0.064
404.00,0.064
405.00,0.063
406.00,0.063
407.00,0.062
408.00,0.062
409.00,0.061
410.00,0.061
411.00,0.060
412.00,0.060
413.00,0.059
414.00,0.059
415.00,0.058
416.00,0.058
417.00,0.058
418.00,0.057
419.00,0.057
420.00,0.056
421.00,0.056
422.00,0.056
423.00,0.055
424.00,0.055
425.00,0.055
426.00,0.054
427.00,0.054
428.00,0.054
429.00,0.054
430.00,0.053
431.00,0.053
432.00,0.053
433.00,0.052
434.00,0.052
435.00,0.052
436.00,0.052
437.00,0.051
438.00,0.051
439.00,0.051
440.00,0.051
441.00,0.051
442.00,0.050
443.00,0.050
444.00,0.050
445.00,0.050
446.00,0.049
447.00,0.049
448.00,0.049
449.00,0.049
450.00,0.049
451.00,0.048
452.00,0.048
453.00,0.048
454.00,0.048
455.00,0.048
456.00,0.047
457.00,0.047
458.00,0.047
459.00,0.047
460.00,0.047
461.00,0.046
462.00,0.046
463.00,0.046
464.00,0.046
465.00,0.046
466.00,0.046
467.00,0.045
468.00,0.045
469.00,0.045
470.00,0.045
471.00,0.045
472.00,0.045
473.00,0.044
474.00,0.044
475.00,0.044
476.00,0.044
477.00,0.044
478.00,0.044
479.00,0.043
480.00,0.043
481.00,0.043
482.00,0.043
483.00,0.043
484.00,0.042
485.00,0.042
486.00,0.042
487.00,0.042
488.00,0.042
489.00,0.042
490.00,0.042
491.00,0.041
492.00,0.041
493.00,0.041
494.00,0.041
495.00,0.041
496.00,0.041
497.00,0.041
498.00,0.041
499.00,0.040
500.00,0.040
501.00,0.040
502.00,0.040
503.00,0.040
504.00,0.040
505.00,0.040
506.00,0.040
507.00,0.040
508.00,0.040
509.00,0.039
510.00,0.039
511.00,0.039
512.00,0.039
513.00,0.039
514.00,0.039
515.00,0.039
516.00,0.039
517.00,0.039
518.00,0.039
519.00,0.039
520.00,0.039
521.00,0.038
522.00,0.038
523.00,0.038
524.00,0.038
525.00,0.038
526.00,0.038
527.00,0.038
528.00,0.038
529.00,0.038
530.00,0.038
531.00,0.038
532.00,0.038
533.00,0.038
534.00,0.037
535.00,0.037
536.00,0.038
537.00,0.037
538.00,0.037
539.00,0.037
540.00,0.037
541.00,0.037
542.00,0.037
543.00,0.037
544.00,0.037
545.00,0.037
546.00,0.037
547.00,0.037
548.00,0.037
549.00,0.037
550.00,0.037
551.00,0.037
552.00,0.037
553.00,0.037
554.00,0.036
555.00,0.036
556.00,0.036
557.00,0.036
558.00,0.036
559.00,0.036
560.00,0.036
561.00,0.036
562.00,0.036
563.00,0.036
564.00,0.036
565.00,0.036
566.00,0.036
567.00,0.036
568.00,0.036
569.00,0.036
570.00,0.036
571.00,0.036
572.00,0.036
573.00,0.036
574.00,0.036
575.00,0.036
576.00,0.036
577.00,0.036
578.00,0.036
579.00,0.036
580.00,0.036
581.00,0.036
582.00,0.036
583.00,0.036
584.00,0.036
585.00,0.036
586.00,0.036
587.00,0.036
588.00,0.035
589.00,0.036
590.00,0.036
591.00,0.036
592.00,0.036
593.00,0.036
594.00,0.036
595.00,0.036
596.00,0.036
597.00,0.036
598.00,0.036
599.00,0.036
600.00,0.036
601.00,0.036
602.00,0.036
603.00,0.036
604.00,0.036
605.00,0.036
606.00,0.036
607.00,0.036
608.00,0.036
609.00,0.036
610.00,0.036
611.00,0.036
612.00,0.035
613.00,0.035
614.00,0.035
615.00,0.035
616.00,0.035
617.00,0.035
618.00,0.035
619.00,0.035
620.00,0.035
621.00,0.035
622.00,0.035
623.00,0.035
624.00,0.035
625.00,0.035
626.00,0.035
627.00,0.035
628.00,0.035
629.00,0.035
630.00,0.035
631.00,0.035
632.00,0.035
633.00,0.035
634.00,0.035
635.00,0.035
636.00,0.035
637.00,0.035
638.00,0.035
639.00,0.035
640.00,0.035
641.00,0.035
642.00,0.035
643.00,0.035
644.00,0.035
645.00,0.035
646.00,0.035
647.00,0.035
648.00,0.035
649.00,0.035
650.00,0.035
651.00,0.035
652.00,0.035
653.00,0.035
654.00,0.035
655.00,0.035
656.00,0.035
657.00,0.035
658.00,0.035
659.00,0.035
660.00,0.035
661.00,0.035
662.00,0.035
663.00,0.035
664.00,0.035
665.00,0.035
666.00,0.035
667.00,0.035
668.00,0.035
669.00,0.035
670.00,0.035
671.00,0.035
672.00,0.035
673.00,0.035
674.00,0.035
675.00,0.035
676.00,0.035
677.00,0.035
678.00,0.035
679.00,0.035
680.00,0.035
681.00,0.035
682.00,0.035
683.00,0.035
684.00,0.035
685.00,0.035
686.00,0.035
687.00,0.035
688.00,0.035
689.00,0.035
690.00,0.035
691.00,0.035
692.00,0.035
693.00,0.035
694.00,0.035
695.00,0.035
696.00,0.035
697.00,0.035
698.00,0.035
699.00,0.035
700.00,0.035
701.00,0.035
702.00,0.035
703.00,0.035
704.00,0.036
705.00,0.036
706.00,0.036
707.00,0.036
708.00,0.036
709.00,0.036
710.00,0.036
711.00,0.036
712.00,0.036
713.00,0.036
714.00,0.036
715.00,0.037
716.00,0.037
717.00,0.037
718.00,0.037
719.00,0.038
720.00,0.038
721.00,0.038
722.00,0.038
723.00,0.038
724.00,0.039
725.00,0.039
726.00,0.039
727.00,0.040
728.00,0.040
729.00,0.040
730.00,0.041
731.00,0.041
732.00,0.042
733.00,0.042
734.00,0.043
735.00,0.043
736.00,0.043
737.00,0.044
738.00,0.044
739.00,0.044
740.00,0.044
741.00,0.044
742.00,0.044
743.00,0.044
744.00,0.044
745.00,0.044
746.00,0.044
747.00,0.044
748.00,0.044
749.00,0.044
750.00,0.044
751.00,0.044
752.00,0.044
753.00,0.044
754.00,0.044
755.00,0.044
756.00,0.044
757.00,0.044
758.00,0.044
759.00,0.044
760.00,0.045
761.00,0.044
762.00,0.044
763.00,0.044
764.00,0.044
765.00,0.044
766.00,0.044
767.00,0.044
768.00,0.044
769.00,0.044
770.00,0.044
771.00,0.044
772.00,0.044
773.00,0.044
774.00,0.044
775.00,0.044
776.00,0.044
777.00,0.044
778.00,0.043
779.00,0.043
780.00,0.043
781.00,0.043
782.00,0.043
783.00,0.043
784.00,0.043
785.00,0.043
786.00,0.043
787.00,0.043
788.00,0.043
789.00,0.042
790.00,0.042
791.00,0.042
792.00,0.042
793.00,0.042
794.00,0.042
795.00,0.042
796.00,0.042
797.00,0.042
798.00,0.042
799.00,0.041
800.00,0.041
801.00,0.041
802.00,0.041
803.00,0.041
804.00,0.041
805.00,0.041
806.00,0.041
807.00,0.041
808.00,0.041
809.00,0.041
810.00,0.041
811.00,0.041
812.00,0.041
813.00,0.041
814.00,0.041
815.00,0.041
816.00,0.041
817.00,0.041
818.00,0.041
819.00,0.042
820.00,0.042
821.00,0.042
822.00,0.042
823.00,0.042
824.00,0.043
825.00,0.043
826.00,0.044
827.00,0.044
828.00,0.045
829.00,0.045
830.00,0.046
831.00,0.046
832.00,0.047
833.00,0.047
834.00,0.048
835.00,0.048
836.00,0.048
837.00,0.048
838.00,0.048
839.00,0.049
840.00,0.049
841.00,0.049
842.00,0.049
843.00,0.049
844.00,0.049
845.00,0.049
846.00,0.049
847.00,0.049
848.00,0.050
849.00,0.050
850.00,0.050
851.00,0.050
852.00,0.050
853.00,0.050
854.00,0.050
855.00,0.051
856.00,0.051
857.00,0.051
858.00,0.051
859.00,0.051
860.00,0.051
861.00,0.051
862.00,0.051
863.00,0.051
864.00,0.052
865.00,0.052
866.00,0.052
867.00,0.052
868.00,0.052
869.00,0.052
870.00,0.052
871.00,0.053
872.00,0.053
873.00,0.053
874.00,0.053
875.00,0.053
876.00,0.054
877.00,0.054
878.00,0.054
879.00,0.054
880.00,0.054
881.00,0.055
882.00,0.055
883.00,0.055
884.00,0.056
885.00,0.056
886.00,0.056
887.00,0.056
888.00,0.056
889.00,0.057
890.00,0.057
891.00,0.057
892.00,0.057
893.00,0.058
894.00,0.058
895.00,0.058
896.00,0.058
897.00,0.059
898.00,0.059
899.00,0.059
900.00,0.059
