"Exploite100x - RawData"
"Wavelength nm.","Abs."
190.00,3.247
191.00,3.740
192.00,3.527
193.00,3.474
194.00,3.620
195.00,3.918
196.00,3.585
197.00,3.870
198.00,3.886
199.00,3.877
200.00,3.902
201.00,3.816
202.00,3.848
203.00,3.909
204.00,3.776
205.00,3.855
206.00,3.803
207.00,3.662
208.00,3.704
209.00,3.508
210.00,3.448
211.00,3.266
212.00,3.155
213.00,3.046
214.00,2.916
215.00,2.831
216.00,2.734
217.00,2.635
218.00,2.553
219.00,2.441
220.00,2.355
221.00,2.269
222.00,2.183
223.00,2.106
224.00,2.031
225.00,1.959
226.00,1.886
227.00,1.814
228.00,1.743
229.00,1.675
230.00,1.610
231.00,1.548
232.00,1.491
233.00,1.436
234.00,1.387
235.00,1.342
236.00,1.301
237.00,1.264
238.00,1.230
239.00,1.199
240.00,1.171
241.00,1.147
242.00,1.128
243.00,1.113
244.00,1.101
245.00,1.092
246.00,1.085
247.00,1.080
248.00,1.077
249.00,1.075
250.00,1.075
251.00,1.076
252.00,1.078
253.00,1.082
254.00,1.086
255.00,1.091
256.00,1.097
257.00,1.103
258.00,1.107
259.00,1.112
260.00,1.117
261.00,1.121
262.00,1.127
263.00,1.132
264.00,1.136
265.00,1.141
266.00,1.145
267.00,1.149
268.00,1.152
269.00,1.154
270.00,1.155
271.00,1.154
272.00,1.153
273.00,1.150
274.00,1.146
275.00,1.140
276.00,1.133
277.00,1.123
278.00,1.112
279.00,1.099
280.00,1.085
281.00,1.071
282.00,1.054
283.00,1.036
284.00,1.016
285.00,0.996
286.00,0.975
287.00,0.954
288.00,0.931
289.00,0.908
290.00,0.884
291.00,0.861
292.00,0.840
293.00,0.821
294.00,0.803
295.00,0.786
296.00,0.772
297.00,0.759
298.00,0.745
299.00,0.732
300.00,0.720
301.00,0.709
302.00,0.698
303.00,0.688
304.00,0.678
305.00,0.667
306.00,0.657
307.00,0.648
308.00,0.639
309.00,0.630
310.00,0.621
311.00,0.612
312.00,0.604
313.00,0.597
314.00,0.589
315.00,0.582
316.00,0.575
317.00,0.568
318.00,0.561
319.00,0.554
320.00,0.547
321.00,0.541
322.00,0.534
323.00,0.527
324.00,0.521
325.00,0.514
326.00,0.507
327.00,0.501
328.00,0.495
329.00,0.488
330.00,0.482
331.00,0.476
332.00,0.469
333.00,0.463
334.00,0.457
335.00,0.451
336.00,0.447
337.00,0.441
338.00,0.435
339.00,0.430
340.00,0.425
341.00,0.418
342.00,0.413
343.00,0.408
344.00,0.403
345.00,0.398
346.00,0.393
347.00,0.389
348.00,0.384
349.00,0.379
350.00,0.374
351.00,0.370
352.00,0.366
353.00,0.362
354.00,0.358
355.00,0.354
356.00,0.349
357.00,0.345
358.00,0.341
359.00,0.337
360.00,0.333
361.00,0.330
362.00,0.326
363.00,0.323
364.00,0.319
365.00,0.316
366.00,0.313
367.00,0.310
368.00,0.306
369.00,0.303
370.00,0.300
371.00,0.297
372.00,0.294
373.00,0.290
374.00,0.288
375.00,0.285
376.00,0.281
377.00,0.278
378.00,0.275
379.00,0.273
380.00,0.269
381.00,0.267
382.00,0.264
383.00,0.261
384.00,0.259
385.00,0.256
386.00,0.254
387.00,0.251
388.00,0.249
389.00,0.246
390.00,0.244
391.00,0.241
392.00,0.239
393.00,0.236
394.00,0.234
395.00,0.232
396.00,0.230
397.00,0.228
398.00,0.225
399.00,0.223
400.00,0.221
401.00,0.219
402.00,0.217
403.00,0.215
404.00,0.213
405.00,0.211
406.00,0.209
407.00,0.207
408.00,0.205
409.00,0.204
410.00,0.202
411.00,0.200
412.00,0.198
413.00,0.196
414.00,0.195
415.00,0.193
416.00,0.191
417.00,0.190
418.00,0.188
419.00,0.187
420.00,0.185
421.00,0.183
422.00,0.182
423.00,0.180
424.00,0.179
425.00,0.177
426.00,0.175
427.00,0.174
428.00,0.172
429.00,0.171
430.00,0.169
431.00,0.168
432.00,0.167
433.00,0.165
434.00,0.164
435.00,0.162
436.00,0.161
437.00,0.160
438.00,0.158
439.00,0.157
440.00,0.156
441.00,0.155
442.00,0.153
443.00,0.152
444.00,0.151
445.00,0.150
446.00,0.149
447.00,0.147
448.00,0.146
449.00,0.145
450.00,0.144
451.00,0.143
452.00,0.142
453.00,0.141
454.00,0.140
455.00,0.139
456.00,0.137
457.00,0.136
458.00,0.135
459.00,0.134
460.00,0.133
461.00,0.132
462.00,0.131
463.00,0.130
464.00,0.129
465.00,0.128
466.00,0.127
467.00,0.126
468.00,0.125
469.00,0.124
470.00,0.123
471.00,0.122
472.00,0.121
473.00,0.121
474.00,0.120
475.00,0.119
476.00,0.118
477.00,0.117
478.00,0.116
479.00,0.115
480.00,0.114
481.00,0.113
482.00,0.113
483.00,0.112
484.00,0.111
485.00,0.110
486.00,0.109
487.00,0.109
488.00,0.108
489.00,0.107
490.00,0.106
491.00,0.105
492.00,0.105
493.00,0.104
494.00,0.103
495.00,0.102
496.00,0.102
497.00,0.101
498.00,0.100
499.00,0.100
500.00,0.099
501.00,0.098
502.00,0.098
503.00,0.097
504.00,0.096
505.00,0.096
506.00,0.095
507.00,0.095
508.00,0.094
509.00,0.093
510.00,0.093
511.00,0.092
512.00,0.091
513.00,0.091
514.00,0.090
515.00,0.090
516.00,0.089
517.00,0.089
518.00,0.088
519.00,0.088
520.00,0.087
521.00,0.086
522.00,0.086
523.00,0.085
524.00,0.085
525.00,0.084
526.00,0.084
527.00,0.083
528.00,0.083
529.00,0.082
530.00,0.082
531.00,0.081
532.00,0.081
533.00,0.080
534.00,0.080
535.00,0.079
536.00,0.079
537.00,0.078
538.00,0.078
539.00,0.077
540.00,0.077
541.00,0.076
542.00,0.076
543.00,0.076
544.00,0.075
545.00,0.075
546.00,0.074
547.00,0.074
548.00,0.074
549.00,0.073
550.00,0.073
551.00,0.072
552.00,0.072
553.00,0.072
554.00,0.071
555.00,0.071
556.00,0.071
557.00,0.070
558.00,0.070
559.00,0.069
560.00,0.069
561.00,0.069
562.00,0.068
563.00,0.068
564.00,0.068
565.00,0.067
566.00,0.067
567.00,0.067
568.00,0.066
569.00,0.066
570.00,0.066
571.00,0.065
572.00,0.065
573.00,0.065
574.00,0.064
575.00,0.064
576.00,0.064
577.00,0.064
578.00,0.063
579.00,0.063
580.00,0.063
581.00,0.062
582.00,0.062
583.00,0.062
584.00,0.062
585.00,0.061
586.00,0.061
587.00,0.061
588.00,0.061
589.00,0.060
590.00,0.060
591.00,0.060
592.00,0.060
593.00,0.060
594.00,0.059
595.00,0.059
596.00,0.059
597.00,0.059
598.00,0.058
599.00,0.058
600.00,0.058
601.00,0.058
602.00,0.058
603.00,0.057
604.00,0.057
605.00,0.057
606.00,0.057
607.00,0.057
608.00,0.056
609.00,0.056
610.00,0.056
611.00,0.056
612.00,0.056
613.00,0.055
614.00,0.055
615.00,0.055
616.00,0.055
617.00,0.055
618.00,0.054
619.00,0.054
620.00,0.054
621.00,0.054
622.00,0.054
623.00,0.053
624.00,0.053
625.00,0.053
626.00,0.053
627.00,0.053
628.00,0.052
629.00,0.052
630.00,0.052
631.00,0.052
632.00,0.052
633.00,0.052
634.00,0.052
635.00,0.051
636.00,0.051
637.00,0.051
638.00,0.051
639.00,0.051
640.00,0.050
641.00,0.050
642.00,0.050
643.00,0.050
644.00,0.050
645.00,0.050
646.00,0.050
647.00,0.049
648.00,0.049
649.00,0.049
650.00,0.049
651.00,0.049
652.00,0.049
653.00,0.049
654.00,0.049
655.00,0.049
656.00,0.048
657.00,0.048
658.00,0.048
659.00,0.048
660.00,0.048
661.00,0.048
662.00,0.048
663.00,0.048
664.00,0.048
665.00,0.047
666.00,0.047
667.00,0.047
668.00,0.047
669.00,0.047
670.00,0.047
671.00,0.047
672.00,0.047
673.00,0.046
674.00,0.046
675.00,0.046
676.00,0.046
677.00,0.046
678.00,0.046
679.00,0.046
680.00,0.046
681.00,0.046
682.00,0.045
683.00,0.045
684.00,0.045
685.00,0.045
686.00,0.045
687.00,0.045
688.00,0.045
689.00,0.045
690.00,0.045
691.00,0.045
692.00,0.045
693.00,0.045
694.00,0.045
695.00,0.045
696.00,0.045
697.00,0.045
698.00,0.044
699.00,0.044
700.00,0.044
701.00,0.044
702.00,0.044
703.00,0.044
704.00,0.044
705.00,0.044
706.00,0.044
707.00,0.044
708.00,0.044
709.00,0.044
710.00,0.045
711.00,0.044
712.00,0.045
713.00,0.045
714.00,0.045
715.00,0.045
716.00,0.045
717.00,0.045
718.00,0.045
719.00,0.045
720.00,0.045
721.00,0.046
722.00,0.046
723.00,0.046
724.00,0.046
725.00,0.046
726.00,0.046
727.00,0.047
728.00,0.047
729.00,0.047
730.00,0.048
731.00,0.048
732.00,0.049
733.00,0.049
734.00,0.049
735.00,0.050
736.00,0.050
737.00,0.050
738.00,0.050
739.00,0.050
740.00,0.050
741.00,0.050
742.00,0.050
743.00,0.050
744.00,0.050
745.00,0.050
746.00,0.050
747.00,0.050
748.00,0.050
749.00,0.050
750.00,0.050
751.00,0.050
752.00,0.050
753.00,0.050
754.00,0.050
755.00,0.050
756.00,0.050
757.00,0.050
758.00,0.050
759.00,0.050
760.00,0.050
761.00,0.050
762.00,0.049
763.00,0.049
764.00,0.049
765.00,0.049
766.00,0.049
767.00,0.049
768.00,0.049
769.00,0.049
770.00,0.049
771.00,0.049
772.00,0.049
773.00,0.049
774.00,0.048
775.00,0.048
776.00,0.048
777.00,0.048
778.00,0.048
779.00,0.048
780.00,0.048
781.00,0.048
782.00,0.047
783.00,0.047
784.00,0.047
785.00,0.047
786.00,0.047
787.00,0.047
788.00,0.047
789.00,0.047
790.00,0.046
791.00,0.046
792.00,0.046
793.00,0.046
794.00,0.046
795.00,0.046
796.00,0.046
797.00,0.045
798.00,0.045
799.00,0.045
800.00,0.045
801.00,0.045
802.00,0.045
803.00,0.045
804.00,0.045
805.00,0.045
806.00,0.045
807.00,0.045
808.00,0.045
809.00,0.045
810.00,0.044
811.00,0.044
812.00,0.044
813.00,0.044
814.00,0.044
815.00,0.045
816.00,0.045
817.00,0.045
818.00,0.045
819.00,0.045
820.00,0.045
821.00,0.045
822.00,0.045
823.00,0.045
824.00,0.046
825.00,0.046
826.00,0.046
827.00,0.047
828.00,0.047
829.00,0.048
830.00,0.049
831.00,0.049
832.00,0.049
833.00,0.050
834.00,0.050
835.00,0.050
836.00,0.050
837.00,0.051
838.00,0.051
839.00,0.051
840.00,0.051
841.00,0.051
842.00,0.051
843.00,0.051
844.00,0.051
845.00,0.052
846.00,0.052
847.00,0.052
848.00,0.052
849.00,0.052
850.00,0.052
851.00,0.052
852.00,0.052
853.00,0.052
854.00,0.052
855.00,0.053
856.00,0.053
857.00,0.053
858.00,0.053
859.00,0.053
860.00,0.053
861.00,0.053
862.00,0.053
863.00,0.053
864.00,0.053
865.00,0.054
866.00,0.054
867.00,0.054
868.00,0.054
869.00,0.054
870.00,0.054
871.00,0.054
872.00,0.055
873.00,0.055
874.00,0.055
875.00,0.055
876.00,0.055
877.00,0.055
878.00,0.056
879.00,0.056
880.00,0.056
881.00,0.057
882.00,0.057
883.00,0.057
884.00,0.057
885.00,0.057
886.00,0.058
887.00,0.058
888.00,0.058
889.00,0.058
890.00,0.058
891.00,0.059
892.00,0.059
893.00,0.059
894.00,0.059
895.00,0.060
896.00,0.060
897.00,0.060
898.00,0.060
899.00,0.061
900.00,0.061
