"Grosse-ile50x - RawData"
"Wavelength nm.","Abs."
190.00,3.219
191.00,3.874
192.00,3.949
193.00,3.772
194.00,3.846
195.00,3.775
196.00,3.878
197.00,3.966
198.00,3.827
199.00,3.810
200.00,3.927
201.00,3.897
202.00,3.912
203.00,3.990
204.00,3.969
205.00,3.884
206.00,3.899
207.00,3.901
208.00,3.734
209.00,3.762
210.00,3.711
211.00,3.389
212.00,3.254
213.00,3.179
214.00,3.001
215.00,2.927
216.00,2.797
217.00,2.685
218.00,2.554
219.00,2.422
220.00,2.321
221.00,2.216
222.00,2.116
223.00,2.016
224.00,1.917
225.00,1.821
226.00,1.722
227.00,1.623
228.00,1.528
229.00,1.442
230.00,1.360
231.00,1.287
232.00,1.220
233.00,1.161
234.00,1.109
235.00,1.063
236.00,1.024
237.00,0.991
238.00,0.964
239.00,0.940
240.00,0.921
241.00,0.906
242.00,0.897
243.00,0.891
244.00,0.888
245.00,0.888
246.00,0.889
247.00,0.891
248.00,0.895
249.00,0.900
250.00,0.906
251.00,0.912
252.00,0.919
253.00,0.926
254.00,0.934
255.00,0.941
256.00,0.948
257.00,0.954
258.00,0.958
259.00,0.961
260.00,0.964
261.00,0.967
262.00,0.970
263.00,0.973
264.00,0.976
265.00,0.977
266.00,0.978
267.00,0.979
268.00,0.978
269.00,0.975
270.00,0.972
271.00,0.967
272.00,0.961
273.00,0.954
274.00,0.947
275.00,0.937
276.00,0.927
277.00,0.915
278.00,0.901
279.00,0.886
280.00,0.871
281.00,0.855
282.00,0.838
283.00,0.819
284.00,0.799
285.00,0.778
286.00,0.758
287.00,0.738
288.00,0.718
289.00,0.697
290.00,0.674
291.00,0.652
292.00,0.633
293.00,0.615
294.00,0.601
295.00,0.586
296.00,0.574
297.00,0.562
298.00,0.551
299.00,0.541
300.00,0.531
301.00,0.522
302.00,0.514
303.00,0.505
304.00,0.498
305.00,0.491
306.00,0.483
307.00,0.476
308.00,0.469
309.00,0.463
310.00,0.456
311.00,0.450
312.00,0.444
313.00,0.438
314.00,0.432
315.00,0.426
316.00,0.421
317.00,0.415
318.00,0.409
319.00,0.404
320.00,0.397
321.00,0.391
322.00,0.384
323.00,0.378
324.00,0.372
325.00,0.365
326.00,0.358
327.00,0.351
328.00,0.344
329.00,0.337
330.00,0.330
331.00,0.322
332.00,0.315
333.00,0.308
334.00,0.301
335.00,0.294
336.00,0.287
337.00,0.280
338.00,0.273
339.00,0.267
340.00,0.261
341.00,0.253
342.00,0.246
343.00,0.240
344.00,0.234
345.00,0.229
346.00,0.223
347.00,0.218
348.00,0.213
349.00,0.207
350.00,0.203
351.00,0.198
352.00,0.193
353.00,0.189
354.00,0.185
355.00,0.181
356.00,0.177
357.00,0.173
358.00,0.169
359.00,0.166
360.00,0.163
361.00,0.159
362.00,0.156
363.00,0.153
364.00,0.151
365.00,0.148
366.00,0.146
367.00,0.143
368.00,0.141
369.00,0.138
370.00,0.136
371.00,0.134
372.00,0.132
373.00,0.130
374.00,0.128
375.00,0.125
376.00,0.124
377.00,0.122
378.00,0.120
379.00,0.118
380.00,0.116
381.00,0.115
382.00,0.113
383.00,0.111
384.00,0.110
385.00,0.108
386.00,0.107
387.00,0.106
388.00,0.104
389.00,0.103
390.00,0.102
391.00,0.100
392.00,0.099
393.00,0.098
394.00,0.097
395.00,0.096
396.00,0.094
397.00,0.093
398.00,0.092
399.00,0.091
400.00,0.090
401.00,0.089
402.00,0.089
403.00,0.088
404.00,0.087
405.00,0.086
406.00,0.085
407.00,0.084
408.00,0.083
409.00,0.083
410.00,0.082
411.00,0.081
412.00,0.080
413.00,0.080
414.00,0.079
415.00,0.078
416.00,0.078
417.00,0.077
418.00,0.077
419.00,0.076
420.00,0.075
421.00,0.075
422.00,0.074
423.00,0.074
424.00,0.073
425.00,0.073
426.00,0.072
427.00,0.071
428.00,0.071
429.00,0.070
430.00,0.070
431.00,0.069
432.00,0.069
433.00,0.068
434.00,0.068
435.00,0.068
436.00,0.067
437.00,0.067
438.00,0.066
439.00,0.066
440.00,0.065
441.00,0.065
442.00,0.064
443.00,0.064
444.00,0.064
445.00,0.063
446.00,0.063
447.00,0.063
448.00,0.062
449.00,0.062
450.00,0.061
451.00,0.061
452.00,0.061
453.00,0.060
454.00,0.060
455.00,0.060
456.00,0.059
457.00,0.059
458.00,0.059
459.00,0.058
460.00,0.058
461.00,0.058
462.00,0.057
463.00,0.057
464.00,0.057
465.00,0.057
466.00,0.056
467.00,0.056
468.00,0.056
469.00,0.055
470.00,0.055
471.00,0.055
472.00,0.055
473.00,0.054
474.00,0.054
475.00,0.054
476.00,0.053
477.00,0.053
478.00,0.053
479.00,0.053
480.00,0.052
481.00,0.052
482.00,0.052
483.00,0.052
484.00,0.051
485.00,0.051
486.00,0.051
487.00,0.051
488.00,0.050
489.00,0.050
490.00,0.050
491.00,0.050
492.00,0.050
493.00,0.049
494.00,0.049
495.00,0.049
496.00,0.049
497.00,0.048
498.00,0.048
499.00,0.048
500.00,0.048
501.00,0.048
502.00,0.047
503.00,0.047
504.00,0.047
505.00,0.047
506.00,0.047
507.00,0.047
508.00,0.046
509.00,0.046
510.00,0.046
511.00,0.046
512.00,0.046
513.00,0.046
514.00,0.046
515.00,0.045
516.00,0.045
517.00,0.045
518.00,0.045
519.00,0.045
520.00,0.045
521.00,0.044
522.00,0.044
523.00,0.044
524.00,0.044
525.00,0.044
526.00,0.044
527.00,0.044
528.00,0.043
529.00,0.043
530.00,0.043
531.00,0.043
532.00,0.043
533.00,0.043
534.00,0.043
535.00,0.043
536.00,0.043
537.00,0.043
538.00,0.042
539.00,0.042
540.00,0.042
541.00,0.042
542.00,0.042
543.00,0.042
544.00,0.042
545.00,0.042
546.00,0.041
547.00,0.041
548.00,0.041
549.00,0.041
550.00,0.041
551.00,0.041
552.00,0.041
553.00,0.041
554.00,0.041
555.00,0.041
556.00,0.041
557.00,0.041
558.00,0.040
559.00,0.040
560.00,0.040
561.00,0.040
562.00,0.040
563.00,0.040
564.00,0.040
565.00,0.040
566.00,0.040
567.00,0.040
568.00,0.040
569.00,0.040
570.00,0.040
571.00,0.040
572.00,0.039
573.00,0.039
574.00,0.039
575.00,0.039
576.00,0.039
577.00,0.039
578.00,0.039
579.00,0.039
580.00,0.039
581.00,0.039
582.00,0.039
583.00,0.039
584.00,0.039
585.00,0.039
586.00,0.039
587.00,0.039
588.00,0.039
589.00,0.039
590.00,0.039
591.00,0.039
592.00,0.039
593.00,0.039
594.00,0.038
595.00,0.039
596.00,0.038
597.00,0.038
598.00,0.038
599.00,0.038
600.00,0.038
601.00,0.038
602.00,0.038
603.00,0.038
604.00,0.038
605.00,0.038
606.00,0.038
607.00,0.038
608.00,0.038
609.00,0.038
610.00,0.038
611.00,0.038
612.00,0.038
613.00,0.038
614.00,0.038
615.00,0.038
616.00,0.038
617.00,0.038
618.00,0.038
619.00,0.038
620.00,0.038
621.00,0.038
622.00,0.038
623.00,0.038
624.00,0.038
625.00,0.038
626.00,0.038
627.00,0.038
628.00,0.038
629.00,0.037
630.00,0.037
631.00,0.038
632.00,0.038
633.00,0.037
634.00,0.037
635.00,0.037
636.00,0.037
637.00,0.037
638.00,0.037
639.00,0.037
640.00,0.037
641.00,0.037
642.00,0.037
643.00,0.037
644.00,0.037
645.00,0.037
646.00,0.037
647.00,0.037
648.00,0.037
649.00,0.037
650.00,0.037
651.00,0.037
652.00,0.037
653.00,0.037
654.00,0.037
655.00,0.037
656.00,0.037
657.00,0.037
658.00,0.037
659.00,0.037
660.00,0.037
661.00,0.037
662.00,0.037
663.00,0.037
664.00,0.037
665.00,0.037
666.00,0.037
667.00,0.037
668.00,0.037
669.00,0.037
670.00,0.037
671.00,0.037
672.00,0.037
673.00,0.037
674.00,0.037
675.00,0.037
676.00,0.037
677.00,0.037
678.00,0.037
679.00,0.037
680.00,0.037
681.00,0.037
682.00,0.037
683.00,0.037
684.00,0.037
685.00,0.037
686.00,0.037
687.00,0.037
688.00,0.037
689.00,0.037
690.00,0.037
691.00,0.037
692.00,0.037
693.00,0.037
694.00,0.037
695.00,0.037
696.00,0.037
697.00,0.037
698.00,0.037
699.00,0.037
700.00,0.037
701.00,0.037
702.00,0.037
703.00,0.037
704.00,0.037
705.00,0.037
706.00,0.037
707.00,0.037
708.00,0.038
709.00,0.038
710.00,0.038
711.00,0.038
712.00,0.038
713.00,0.038
714.00,0.038
715.00,0.038
716.00,0.038
717.00,0.039
718.00,0.039
719.00,0.039
720.00,0.039
721.00,0.040
722.00,0.040
723.00,0.040
724.00,0.040
725.00,0.040
726.00,0.041
727.00,0.041
728.00,0.041
729.00,0.042
730.00,0.042
731.00,0.043
732.00,0.043
733.00,0.043
734.00,0.044
735.00,0.044
736.00,0.044
737.00,0.045
738.00,0.045
739.00,0.045
740.00,0.045
741.00,0.045
742.00,0.045
743.00,0.045
744.00,0.045
745.00,0.045
746.00,0.045
747.00,0.045
748.00,0.045
749.00,0.045
750.00,0.045
751.00,0.045
752.00,0.045
753.00,0.045
754.00,0.045
755.00,0.045
756.00,0.045
757.00,0.045
758.00,0.045
759.00,0.045
760.00,0.046
761.00,0.045
762.00,0.045
763.00,0.045
764.00,0.045
765.00,0.045
766.00,0.045
767.00,0.045
768.00,0.045
769.00,0.045
770.00,0.045
771.00,0.045
772.00,0.045
773.00,0.045
774.00,0.045
775.00,0.045
776.00,0.045
777.00,0.045
778.00,0.045
779.00,0.045
780.00,0.045
781.00,0.044
782.00,0.044
783.00,0.044
784.00,0.044
785.00,0.044
786.00,0.044
787.00,0.044
788.00,0.044
789.00,0.044
790.00,0.044
791.00,0.044
792.00,0.043
793.00,0.043
794.00,0.043
795.00,0.043
796.00,0.043
797.00,0.043
798.00,0.043
799.00,0.043
800.00,0.043
801.00,0.043
802.00,0.043
803.00,0.043
804.00,0.042
805.00,0.042
806.00,0.042
807.00,0.042
808.00,0.042
809.00,0.042
810.00,0.042
811.00,0.042
812.00,0.042
813.00,0.042
814.00,0.042
815.00,0.042
816.00,0.043
817.00,0.043
818.00,0.043
819.00,0.043
820.00,0.043
821.00,0.043
822.00,0.043
823.00,0.043
824.00,0.044
825.00,0.044
826.00,0.044
827.00,0.045
828.00,0.045
829.00,0.046
830.00,0.046
831.00,0.047
832.00,0.047
833.00,0.048
834.00,0.048
835.00,0.048
836.00,0.048
837.00,0.049
838.00,0.049
839.00,0.049
840.00,0.049
841.00,0.049
842.00,0.049
843.00,0.049
844.00,0.049
845.00,0.050
846.00,0.050
847.00,0.050
848.00,0.050
849.00,0.050
850.00,0.050
851.00,0.050
852.00,0.050
853.00,0.051
854.00,0.051
855.00,0.051
856.00,0.051
857.00,0.051
858.00,0.051
859.00,0.051
860.00,0.052
861.00,0.052
862.00,0.052
863.00,0.052
864.00,0.052
865.00,0.052
866.00,0.052
867.00,0.052
868.00,0.053
869.00,0.053
870.00,0.053
871.00,0.053
872.00,0.053
873.00,0.053
874.00,0.054
875.00,0.054
876.00,0.054
877.00,0.054
878.00,0.054
879.00,0.055
880.00,0.055
881.00,0.055
882.00,0.055
883.00,0.056
884.00,0.056
885.00,0.056
886.00,0.056
887.00,0.057
888.00,0.057
889.00,0.057
890.00,0.057
891.00,0.058
892.00,0.058
893.00,0.058
894.00,0.058
895.00,0.058
896.00,0.059
897.00,0.059
898.00,0.059
899.00,0.059
900.00,0.060
