"UBlondeUnibroue50x - RawData"
"Wavelength nm.","Abs."
190.00,3.034
191.00,3.290
192.00,3.202
193.00,3.480
194.00,3.784
195.00,3.587
196.00,3.413
197.00,3.384
198.00,3.391
199.00,3.272
200.00,3.218
201.00,3.110
202.00,2.919
203.00,2.791
204.00,2.643
205.00,2.510
206.00,2.387
207.00,2.262
208.00,2.151
209.00,2.040
210.00,1.940
211.00,1.846
212.00,1.757
213.00,1.673
214.00,1.591
215.00,1.515
216.00,1.440
217.00,1.369
218.00,1.299
219.00,1.231
220.00,1.167
221.00,1.108
222.00,1.051
223.00,0.997
224.00,0.943
225.00,0.892
226.00,0.841
227.00,0.790
228.00,0.741
229.00,0.697
230.00,0.655
231.00,0.617
232.00,0.583
233.00,0.554
234.00,0.529
235.00,0.508
236.00,0.491
237.00,0.476
238.00,0.465
239.00,0.455
240.00,0.448
241.00,0.444
242.00,0.440
243.00,0.439
244.00,0.439
245.00,0.440
246.00,0.441
247.00,0.444
248.00,0.446
249.00,0.449
250.00,0.452
251.00,0.456
252.00,0.460
253.00,0.463
254.00,0.467
255.00,0.470
256.00,0.474
257.00,0.476
258.00,0.477
259.00,0.478
260.00,0.479
261.00,0.479
262.00,0.480
263.00,0.480
264.00,0.481
265.00,0.481
266.00,0.480
267.00,0.479
268.00,0.478
269.00,0.475
270.00,0.472
271.00,0.468
272.00,0.464
273.00,0.459
274.00,0.453
275.00,0.447
276.00,0.440
277.00,0.433
278.00,0.424
279.00,0.415
280.00,0.406
281.00,0.397
282.00,0.387
283.00,0.376
284.00,0.365
285.00,0.352
286.00,0.341
287.00,0.329
288.00,0.317
289.00,0.306
290.00,0.293
291.00,0.281
292.00,0.271
293.00,0.261
294.00,0.253
295.00,0.245
296.00,0.239
297.00,0.233
298.00,0.227
299.00,0.222
300.00,0.217
301.00,0.213
302.00,0.209
303.00,0.205
304.00,0.202
305.00,0.199
306.00,0.196
307.00,0.194
308.00,0.191
309.00,0.189
310.00,0.187
311.00,0.185
312.00,0.183
313.00,0.181
314.00,0.180
315.00,0.178
316.00,0.176
317.00,0.174
318.00,0.172
319.00,0.170
320.00,0.168
321.00,0.166
322.00,0.164
323.00,0.162
324.00,0.159
325.00,0.157
326.00,0.154
327.00,0.152
328.00,0.149
329.00,0.146
330.00,0.144
331.00,0.141
332.00,0.138
333.00,0.135
334.00,0.132
335.00,0.129
336.00,0.126
337.00,0.124
338.00,0.121
339.00,0.118
340.00,0.116
341.00,0.112
342.00,0.109
343.00,0.107
344.00,0.104
345.00,0.101
346.00,0.099
347.00,0.097
348.00,0.094
349.00,0.092
350.00,0.090
351.00,0.088
352.00,0.086
353.00,0.084
354.00,0.082
355.00,0.081
356.00,0.079
357.00,0.078
358.00,0.076
359.00,0.074
360.00,0.073
361.00,0.072
362.00,0.070
363.00,0.069
364.00,0.068
365.00,0.067
366.00,0.066
367.00,0.065
368.00,0.064
369.00,0.063
370.00,0.062
371.00,0.061
372.00,0.061
373.00,0.060
374.00,0.059
375.00,0.058
376.00,0.058
377.00,0.057
378.00,0.056
379.00,0.056
380.00,0.055
381.00,0.055
382.00,0.054
383.00,0.054
384.00,0.053
385.00,0.053
386.00,0.052
387.00,0.052
388.00,0.052
389.00,0.051
390.00,0.051
391.00,0.050
392.00,0.050
393.00,0.050
394.00,0.049
395.00,0.049
396.00,0.049
397.00,0.048
398.00,0.048
399.00,0.048
400.00,0.048
401.00,0.047
402.00,0.047
403.00,0.047
404.00,0.047
405.00,0.047
406.00,0.046
407.00,0.046
408.00,0.046
409.00,0.046
410.00,0.045
411.00,0.045
412.00,0.045
413.00,0.045
414.00,0.045
415.00,0.045
416.00,0.044
417.00,0.044
418.00,0.044
419.00,0.044
420.00,0.044
421.00,0.044
422.00,0.044
423.00,0.044
424.00,0.043
425.00,0.043
426.00,0.043
427.00,0.043
428.00,0.043
429.00,0.043
430.00,0.043
431.00,0.042
432.00,0.042
433.00,0.042
434.00,0.042
435.00,0.042
436.00,0.042
437.00,0.042
438.00,0.042
439.00,0.042
440.00,0.042
441.00,0.041
442.00,0.041
443.00,0.041
444.00,0.041
445.00,0.041
446.00,0.041
447.00,0.041
448.00,0.041
449.00,0.041
450.00,0.041
451.00,0.041
452.00,0.041
453.00,0.040
454.00,0.040
455.00,0.040
456.00,0.040
457.00,0.040
458.00,0.040
459.00,0.040
460.00,0.040
461.00,0.040
462.00,0.040
463.00,0.040
464.00,0.040
465.00,0.040
466.00,0.040
467.00,0.039
468.00,0.039
469.00,0.039
470.00,0.039
471.00,0.039
472.00,0.039
473.00,0.039
474.00,0.039
475.00,0.039
476.00,0.039
477.00,0.039
478.00,0.039
479.00,0.039
480.00,0.039
481.00,0.039
482.00,0.039
483.00,0.039
484.00,0.038
485.00,0.038
486.00,0.038
487.00,0.038
488.00,0.038
489.00,0.038
490.00,0.038
491.00,0.038
492.00,0.038
493.00,0.038
494.00,0.038
495.00,0.038
496.00,0.038
497.00,0.038
498.00,0.038
499.00,0.038
500.00,0.038
501.00,0.038
502.00,0.038
503.00,0.037
504.00,0.037
505.00,0.037
506.00,0.037
507.00,0.037
508.00,0.037
509.00,0.037
510.00,0.037
511.00,0.037
512.00,0.037
513.00,0.037
514.00,0.037
515.00,0.037
516.00,0.037
517.00,0.037
518.00,0.037
519.00,0.037
520.00,0.037
521.00,0.037
522.00,0.037
523.00,0.037
524.00,0.037
525.00,0.037
526.00,0.037
527.00,0.036
528.00,0.036
529.00,0.036
530.00,0.036
531.00,0.036
532.00,0.036
533.00,0.036
534.00,0.036
535.00,0.036
536.00,0.036
537.00,0.036
538.00,0.036
539.00,0.036
540.00,0.036
541.00,0.036
542.00,0.036
543.00,0.036
544.00,0.036
545.00,0.036
546.00,0.036
547.00,0.036
548.00,0.036
549.00,0.036
550.00,0.036
551.00,0.036
552.00,0.036
553.00,0.036
554.00,0.036
555.00,0.036
556.00,0.036
557.00,0.035
558.00,0.035
559.00,0.035
560.00,0.035
561.00,0.035
562.00,0.035
563.00,0.035
564.00,0.035
565.00,0.035
566.00,0.035
567.00,0.035
568.00,0.035
569.00,0.035
570.00,0.035
571.00,0.035
572.00,0.035
573.00,0.035
574.00,0.035
575.00,0.035
576.00,0.035
577.00,0.035
578.00,0.035
579.00,0.035
580.00,0.035
581.00,0.035
582.00,0.035
583.00,0.035
584.00,0.035
585.00,0.035
586.00,0.035
587.00,0.035
588.00,0.035
589.00,0.035
590.00,0.035
591.00,0.035
592.00,0.035
593.00,0.035
594.00,0.035
595.00,0.035
596.00,0.035
597.00,0.035
598.00,0.035
599.00,0.035
600.00,0.035
601.00,0.035
602.00,0.035
603.00,0.035
604.00,0.035
605.00,0.035
606.00,0.035
607.00,0.035
608.00,0.035
609.00,0.035
610.00,0.035
611.00,0.035
612.00,0.035
613.00,0.035
614.00,0.035
615.00,0.035
616.00,0.035
617.00,0.035
618.00,0.035
619.00,0.035
620.00,0.035
621.00,0.035
622.00,0.035
623.00,0.035
624.00,0.035
625.00,0.035
626.00,0.035
627.00,0.035
628.00,0.035
629.00,0.035
630.00,0.035
631.00,0.035
632.00,0.035
633.00,0.035
634.00,0.035
635.00,0.035
636.00,0.035
637.00,0.035
638.00,0.035
639.00,0.035
640.00,0.035
641.00,0.035
642.00,0.035
643.00,0.035
644.00,0.035
645.00,0.035
646.00,0.035
647.00,0.035
648.00,0.035
649.00,0.035
650.00,0.035
651.00,0.035
652.00,0.035
653.00,0.035
654.00,0.035
655.00,0.035
656.00,0.035
657.00,0.035
658.00,0.035
659.00,0.035
660.00,0.035
661.00,0.035
662.00,0.035
663.00,0.035
664.00,0.035
665.00,0.035
666.00,0.035
667.00,0.035
668.00,0.035
669.00,0.035
670.00,0.035
671.00,0.035
672.00,0.035
673.00,0.035
674.00,0.035
675.00,0.035
676.00,0.035
677.00,0.035
678.00,0.035
679.00,0.035
680.00,0.035
681.00,0.035
682.00,0.035
683.00,0.035
684.00,0.035
685.00,0.035
686.00,0.035
687.00,0.035
688.00,0.035
689.00,0.035
690.00,0.035
691.00,0.035
692.00,0.035
693.00,0.035
694.00,0.035
695.00,0.036
696.00,0.036
697.00,0.036
698.00,0.036
699.00,0.036
700.00,0.036
701.00,0.036
702.00,0.036
703.00,0.036
704.00,0.036
705.00,0.036
706.00,0.036
707.00,0.036
708.00,0.036
709.00,0.036
710.00,0.036
711.00,0.037
712.00,0.037
713.00,0.037
714.00,0.037
715.00,0.037
716.00,0.037
717.00,0.038
718.00,0.038
719.00,0.038
720.00,0.038
721.00,0.038
722.00,0.039
723.00,0.039
724.00,0.039
725.00,0.039
726.00,0.040
727.00,0.040
728.00,0.040
729.00,0.041
730.00,0.041
731.00,0.042
732.00,0.042
733.00,0.043
734.00,0.043
735.00,0.043
736.00,0.044
737.00,0.044
738.00,0.044
739.00,0.044
740.00,0.044
741.00,0.044
742.00,0.044
743.00,0.044
744.00,0.044
745.00,0.044
746.00,0.044
747.00,0.044
748.00,0.044
749.00,0.044
750.00,0.044
751.00,0.045
752.00,0.045
753.00,0.045
754.00,0.045
755.00,0.045
756.00,0.045
757.00,0.045
758.00,0.045
759.00,0.045
760.00,0.045
761.00,0.045
762.00,0.044
763.00,0.045
764.00,0.045
765.00,0.045
766.00,0.044
767.00,0.044
768.00,0.044
769.00,0.044
770.00,0.044
771.00,0.044
772.00,0.044
773.00,0.044
774.00,0.044
775.00,0.044
776.00,0.044
777.00,0.044
778.00,0.044
779.00,0.044
780.00,0.044
781.00,0.044
782.00,0.043
783.00,0.043
784.00,0.043
785.00,0.043
786.00,0.043
787.00,0.043
788.00,0.043
789.00,0.043
790.00,0.043
791.00,0.043
792.00,0.042
793.00,0.042
794.00,0.042
795.00,0.042
796.00,0.042
797.00,0.042
798.00,0.042
799.00,0.042
800.00,0.042
801.00,0.042
802.00,0.042
803.00,0.042
804.00,0.042
805.00,0.041
806.00,0.041
807.00,0.041
808.00,0.041
809.00,0.041
810.00,0.041
811.00,0.041
812.00,0.041
813.00,0.042
814.00,0.042
815.00,0.042
816.00,0.042
817.00,0.042
818.00,0.042
819.00,0.042
820.00,0.042
821.00,0.042
822.00,0.042
823.00,0.043
824.00,0.043
825.00,0.043
826.00,0.044
827.00,0.044
828.00,0.045
829.00,0.045
830.00,0.046
831.00,0.046
832.00,0.047
833.00,0.047
834.00,0.047
835.00,0.048
836.00,0.048
837.00,0.048
838.00,0.048
839.00,0.049
840.00,0.049
841.00,0.049
842.00,0.049
843.00,0.049
844.00,0.049
845.00,0.049
846.00,0.049
847.00,0.049
848.00,0.050
849.00,0.050
850.00,0.050
851.00,0.050
852.00,0.050
853.00,0.050
854.00,0.050
855.00,0.051
856.00,0.051
857.00,0.051
858.00,0.051
859.00,0.051
860.00,0.051
861.00,0.051
862.00,0.051
863.00,0.051
864.00,0.052
865.00,0.052
866.00,0.052
867.00,0.052
868.00,0.052
869.00,0.052
870.00,0.053
871.00,0.053
872.00,0.053
873.00,0.053
874.00,0.053
875.00,0.054
876.00,0.054
877.00,0.054
878.00,0.054
879.00,0.054
880.00,0.055
881.00,0.055
882.00,0.055
883.00,0.055
884.00,0.056
885.00,0.056
886.00,0.056
887.00,0.056
888.00,0.057
889.00,0.057
890.00,0.057
891.00,0.057
892.00,0.058
893.00,0.058
894.00,0.058
895.00,0.058
896.00,0.059
897.00,0.059
898.00,0.059
899.00,0.059
900.00,0.059
