"Moralite50x - RawData"
"Wavelength nm.","Abs."
190.00,3.923
191.00,3.641
192.00,3.821
193.00,3.778
194.00,3.810
195.00,3.855
196.00,3.738
197.00,3.821
198.00,3.706
199.00,3.691
200.00,3.911
201.00,3.898
202.00,3.905
203.00,3.860
204.00,3.955
205.00,3.920
206.00,3.971
207.00,3.974
208.00,3.964
209.00,3.847
210.00,3.946
211.00,3.790
212.00,3.768
213.00,3.573
214.00,3.385
215.00,3.251
216.00,3.109
217.00,2.969
218.00,2.825
219.00,2.694
220.00,2.553
221.00,2.432
222.00,2.311
223.00,2.196
224.00,2.082
225.00,1.967
226.00,1.852
227.00,1.737
228.00,1.628
229.00,1.529
230.00,1.436
231.00,1.355
232.00,1.281
233.00,1.216
234.00,1.160
235.00,1.114
236.00,1.073
237.00,1.040
238.00,1.012
239.00,0.990
240.00,0.972
241.00,0.958
242.00,0.948
243.00,0.941
244.00,0.937
245.00,0.935
246.00,0.934
247.00,0.935
248.00,0.937
249.00,0.941
250.00,0.945
251.00,0.950
252.00,0.957
253.00,0.963
254.00,0.969
255.00,0.975
256.00,0.981
257.00,0.985
258.00,0.988
259.00,0.989
260.00,0.990
261.00,0.991
262.00,0.992
263.00,0.993
264.00,0.993
265.00,0.993
266.00,0.992
267.00,0.990
268.00,0.988
269.00,0.984
270.00,0.977
271.00,0.968
272.00,0.959
273.00,0.948
274.00,0.935
275.00,0.921
276.00,0.905
277.00,0.889
278.00,0.871
279.00,0.852
280.00,0.833
281.00,0.812
282.00,0.790
283.00,0.765
284.00,0.739
285.00,0.713
286.00,0.688
287.00,0.663
288.00,0.638
289.00,0.612
290.00,0.584
291.00,0.557
292.00,0.534
293.00,0.514
294.00,0.498
295.00,0.483
296.00,0.471
297.00,0.459
298.00,0.449
299.00,0.440
300.00,0.432
301.00,0.425
302.00,0.418
303.00,0.412
304.00,0.406
305.00,0.401
306.00,0.396
307.00,0.391
308.00,0.387
309.00,0.383
310.00,0.378
311.00,0.374
312.00,0.370
313.00,0.367
314.00,0.364
315.00,0.360
316.00,0.356
317.00,0.352
318.00,0.348
319.00,0.344
320.00,0.340
321.00,0.335
322.00,0.331
323.00,0.326
324.00,0.321
325.00,0.316
326.00,0.311
327.00,0.306
328.00,0.300
329.00,0.294
330.00,0.289
331.00,0.283
332.00,0.277
333.00,0.271
334.00,0.265
335.00,0.259
336.00,0.254
337.00,0.248
338.00,0.242
339.00,0.236
340.00,0.230
341.00,0.224
342.00,0.218
343.00,0.212
344.00,0.206
345.00,0.201
346.00,0.195
347.00,0.191
348.00,0.185
349.00,0.180
350.00,0.176
351.00,0.171
352.00,0.166
353.00,0.162
354.00,0.158
355.00,0.154
356.00,0.151
357.00,0.147
358.00,0.143
359.00,0.140
360.00,0.137
361.00,0.134
362.00,0.130
363.00,0.128
364.00,0.125
365.00,0.122
366.00,0.120
367.00,0.117
368.00,0.115
369.00,0.113
370.00,0.111
371.00,0.109
372.00,0.106
373.00,0.105
374.00,0.103
375.00,0.100
376.00,0.099
377.00,0.097
378.00,0.095
379.00,0.093
380.00,0.091
381.00,0.090
382.00,0.088
383.00,0.087
384.00,0.085
385.00,0.084
386.00,0.082
387.00,0.081
388.00,0.080
389.00,0.078
390.00,0.077
391.00,0.076
392.00,0.075
393.00,0.073
394.00,0.072
395.00,0.071
396.00,0.070
397.00,0.069
398.00,0.068
399.00,0.068
400.00,0.067
401.00,0.066
402.00,0.065
403.00,0.064
404.00,0.064
405.00,0.063
406.00,0.062
407.00,0.062
408.00,0.061
409.00,0.060
410.00,0.060
411.00,0.059
412.00,0.059
413.00,0.058
414.00,0.058
415.00,0.057
416.00,0.057
417.00,0.057
418.00,0.056
419.00,0.056
420.00,0.056
421.00,0.055
422.00,0.055
423.00,0.055
424.00,0.054
425.00,0.054
426.00,0.054
427.00,0.053
428.00,0.053
429.00,0.053
430.00,0.053
431.00,0.053
432.00,0.052
433.00,0.052
434.00,0.052
435.00,0.052
436.00,0.051
437.00,0.051
438.00,0.051
439.00,0.051
440.00,0.051
441.00,0.050
442.00,0.050
443.00,0.050
444.00,0.050
445.00,0.050
446.00,0.050
447.00,0.049
448.00,0.049
449.00,0.049
450.00,0.049
451.00,0.049
452.00,0.049
453.00,0.049
454.00,0.048
455.00,0.048
456.00,0.048
457.00,0.048
458.00,0.048
459.00,0.048
460.00,0.048
461.00,0.048
462.00,0.047
463.00,0.047
464.00,0.047
465.00,0.047
466.00,0.047
467.00,0.047
468.00,0.047
469.00,0.047
470.00,0.046
471.00,0.046
472.00,0.046
473.00,0.046
474.00,0.046
475.00,0.046
476.00,0.046
477.00,0.046
478.00,0.046
479.00,0.045
480.00,0.045
481.00,0.045
482.00,0.045
483.00,0.045
484.00,0.045
485.00,0.045
486.00,0.045
487.00,0.044
488.00,0.044
489.00,0.044
490.00,0.044
491.00,0.044
492.00,0.044
493.00,0.044
494.00,0.044
495.00,0.044
496.00,0.044
497.00,0.044
498.00,0.044
499.00,0.043
500.00,0.043
501.00,0.043
502.00,0.043
503.00,0.043
504.00,0.043
505.00,0.043
506.00,0.043
507.00,0.043
508.00,0.043
509.00,0.043
510.00,0.042
511.00,0.042
512.00,0.042
513.00,0.042
514.00,0.042
515.00,0.042
516.00,0.042
517.00,0.042
518.00,0.042
519.00,0.042
520.00,0.042
521.00,0.042
522.00,0.042
523.00,0.042
524.00,0.041
525.00,0.041
526.00,0.041
527.00,0.041
528.00,0.041
529.00,0.041
530.00,0.041
531.00,0.041
532.00,0.041
533.00,0.041
534.00,0.041
535.00,0.041
536.00,0.041
537.00,0.041
538.00,0.041
539.00,0.041
540.00,0.041
541.00,0.040
542.00,0.040
543.00,0.040
544.00,0.040
545.00,0.040
546.00,0.040
547.00,0.040
548.00,0.040
549.00,0.040
550.00,0.040
551.00,0.040
552.00,0.040
553.00,0.040
554.00,0.040
555.00,0.040
556.00,0.040
557.00,0.040
558.00,0.040
559.00,0.040
560.00,0.040
561.00,0.040
562.00,0.040
563.00,0.039
564.00,0.039
565.00,0.039
566.00,0.039
567.00,0.039
568.00,0.039
569.00,0.039
570.00,0.039
571.00,0.039
572.00,0.039
573.00,0.039
574.00,0.039
575.00,0.039
576.00,0.039
577.00,0.039
578.00,0.039
579.00,0.039
580.00,0.039
581.00,0.039
582.00,0.039
583.00,0.039
584.00,0.039
585.00,0.039
586.00,0.039
587.00,0.039
588.00,0.039
589.00,0.039
590.00,0.039
591.00,0.039
592.00,0.039
593.00,0.039
594.00,0.039
595.00,0.039
596.00,0.039
597.00,0.039
598.00,0.039
599.00,0.039
600.00,0.039
601.00,0.039
602.00,0.039
603.00,0.039
604.00,0.039
605.00,0.039
606.00,0.039
607.00,0.039
608.00,0.039
609.00,0.039
610.00,0.038
611.00,0.039
612.00,0.039
613.00,0.038
614.00,0.038
615.00,0.038
616.00,0.038
617.00,0.038
618.00,0.038
619.00,0.038
620.00,0.038
621.00,0.038
622.00,0.038
623.00,0.038
624.00,0.038
625.00,0.038
626.00,0.038
627.00,0.038
628.00,0.038
629.00,0.038
630.00,0.038
631.00,0.038
632.00,0.038
633.00,0.038
634.00,0.038
635.00,0.038
636.00,0.038
637.00,0.038
638.00,0.038
639.00,0.038
640.00,0.038
641.00,0.038
642.00,0.038
643.00,0.038
644.00,0.038
645.00,0.038
646.00,0.038
647.00,0.038
648.00,0.038
649.00,0.038
650.00,0.038
651.00,0.038
652.00,0.038
653.00,0.038
654.00,0.038
655.00,0.038
656.00,0.038
657.00,0.038
658.00,0.038
659.00,0.038
660.00,0.038
661.00,0.038
662.00,0.038
663.00,0.038
664.00,0.038
665.00,0.038
666.00,0.038
667.00,0.038
668.00,0.038
669.00,0.038
670.00,0.038
671.00,0.038
672.00,0.038
673.00,0.038
674.00,0.038
675.00,0.038
676.00,0.038
677.00,0.038
678.00,0.038
679.00,0.038
680.00,0.038
681.00,0.038
682.00,0.038
683.00,0.038
684.00,0.038
685.00,0.038
686.00,0.038
687.00,0.038
688.00,0.038
689.00,0.038
690.00,0.038
691.00,0.038
692.00,0.038
693.00,0.038
694.00,0.038
695.00,0.038
696.00,0.038
697.00,0.038
698.00,0.038
699.00,0.038
700.00,0.038
701.00,0.038
702.00,0.038
703.00,0.038
704.00,0.038
705.00,0.038
706.00,0.038
707.00,0.038
708.00,0.038
709.00,0.038
710.00,0.038
711.00,0.038
712.00,0.039
713.00,0.039
714.00,0.039
715.00,0.039
716.00,0.039
717.00,0.039
718.00,0.040
719.00,0.040
720.00,0.040
721.00,0.040
722.00,0.040
723.00,0.041
724.00,0.041
725.00,0.041
726.00,0.041
727.00,0.042
728.00,0.042
729.00,0.042
730.00,0.043
731.00,0.043
732.00,0.044
733.00,0.044
734.00,0.045
735.00,0.045
736.00,0.045
737.00,0.045
738.00,0.046
739.00,0.046
740.00,0.046
741.00,0.046
742.00,0.046
743.00,0.046
744.00,0.046
745.00,0.046
746.00,0.046
747.00,0.046
748.00,0.046
749.00,0.046
750.00,0.046
751.00,0.046
752.00,0.046
753.00,0.046
754.00,0.046
755.00,0.046
756.00,0.046
757.00,0.046
758.00,0.046
759.00,0.046
760.00,0.046
761.00,0.046
762.00,0.046
763.00,0.046
764.00,0.046
765.00,0.046
766.00,0.046
767.00,0.046
768.00,0.046
769.00,0.046
770.00,0.046
771.00,0.046
772.00,0.046
773.00,0.046
774.00,0.046
775.00,0.046
776.00,0.046
777.00,0.045
778.00,0.045
779.00,0.045
780.00,0.045
781.00,0.045
782.00,0.045
783.00,0.045
784.00,0.045
785.00,0.045
786.00,0.045
787.00,0.045
788.00,0.045
789.00,0.044
790.00,0.044
791.00,0.044
792.00,0.044
793.00,0.044
794.00,0.044
795.00,0.044
796.00,0.044
797.00,0.044
798.00,0.044
799.00,0.043
800.00,0.043
801.00,0.043
802.00,0.043
803.00,0.043
804.00,0.043
805.00,0.043
806.00,0.043
807.00,0.043
808.00,0.043
809.00,0.043
810.00,0.043
811.00,0.043
812.00,0.043
813.00,0.043
814.00,0.043
815.00,0.043
816.00,0.043
817.00,0.043
818.00,0.043
819.00,0.043
820.00,0.044
821.00,0.044
822.00,0.044
823.00,0.044
824.00,0.044
825.00,0.045
826.00,0.045
827.00,0.046
828.00,0.046
829.00,0.047
830.00,0.047
831.00,0.048
832.00,0.048
833.00,0.049
834.00,0.049
835.00,0.049
836.00,0.049
837.00,0.050
838.00,0.050
839.00,0.050
840.00,0.050
841.00,0.050
842.00,0.050
843.00,0.050
844.00,0.051
845.00,0.051
846.00,0.051
847.00,0.051
848.00,0.051
849.00,0.051
850.00,0.051
851.00,0.051
852.00,0.052
853.00,0.052
854.00,0.052
855.00,0.052
856.00,0.052
857.00,0.052
858.00,0.052
859.00,0.052
860.00,0.053
861.00,0.053
862.00,0.053
863.00,0.053
864.00,0.053
865.00,0.053
866.00,0.053
867.00,0.053
868.00,0.054
869.00,0.054
870.00,0.054
871.00,0.054
872.00,0.055
873.00,0.055
874.00,0.055
875.00,0.055
876.00,0.055
877.00,0.055
878.00,0.056
879.00,0.056
880.00,0.056
881.00,0.057
882.00,0.057
883.00,0.057
884.00,0.057
885.00,0.058
886.00,0.058
887.00,0.058
888.00,0.058
889.00,0.059
890.00,0.059
891.00,0.059
892.00,0.059
893.00,0.060
894.00,0.060
895.00,0.060
896.00,0.060
897.00,0.061
898.00,0.061
899.00,0.061
900.00,0.061
