"ChalevoixIPA50x - RawData"
"Wavelength nm.","Abs."
190.00,3.953
191.00,3.814
192.00,3.943
193.00,3.627
194.00,3.807
195.00,3.883
196.00,3.666
197.00,3.862
198.00,3.898
199.00,3.951
200.00,3.967
201.00,3.848
202.00,3.778
203.00,3.893
204.00,3.906
205.00,3.707
206.00,3.941
207.00,3.901
208.00,3.802
209.00,3.557
210.00,3.482
211.00,3.347
212.00,3.196
213.00,3.061
214.00,2.892
215.00,2.803
216.00,2.656
217.00,2.522
218.00,2.400
219.00,2.280
220.00,2.157
221.00,2.046
222.00,1.942
223.00,1.838
224.00,1.735
225.00,1.634
226.00,1.531
227.00,1.426
228.00,1.327
229.00,1.237
230.00,1.154
231.00,1.080
232.00,1.016
233.00,0.960
234.00,0.913
235.00,0.872
236.00,0.838
237.00,0.812
238.00,0.791
239.00,0.775
240.00,0.763
241.00,0.754
242.00,0.749
243.00,0.747
244.00,0.747
245.00,0.748
246.00,0.751
247.00,0.755
248.00,0.760
249.00,0.765
250.00,0.771
251.00,0.778
252.00,0.785
253.00,0.792
254.00,0.798
255.00,0.804
256.00,0.810
257.00,0.815
258.00,0.817
259.00,0.818
260.00,0.819
261.00,0.820
262.00,0.820
263.00,0.821
264.00,0.821
265.00,0.820
266.00,0.818
267.00,0.817
268.00,0.814
269.00,0.808
270.00,0.802
271.00,0.793
272.00,0.783
273.00,0.771
274.00,0.759
275.00,0.744
276.00,0.730
277.00,0.714
278.00,0.696
279.00,0.678
280.00,0.660
281.00,0.640
282.00,0.619
283.00,0.596
284.00,0.572
285.00,0.548
286.00,0.525
287.00,0.504
288.00,0.481
289.00,0.459
290.00,0.435
291.00,0.412
292.00,0.392
293.00,0.376
294.00,0.362
295.00,0.349
296.00,0.339
297.00,0.330
298.00,0.322
299.00,0.315
300.00,0.309
301.00,0.304
302.00,0.299
303.00,0.295
304.00,0.291
305.00,0.288
306.00,0.285
307.00,0.282
308.00,0.280
309.00,0.277
310.00,0.275
311.00,0.273
312.00,0.271
313.00,0.269
314.00,0.267
315.00,0.265
316.00,0.263
317.00,0.260
318.00,0.258
319.00,0.256
320.00,0.253
321.00,0.251
322.00,0.248
323.00,0.245
324.00,0.242
325.00,0.239
326.00,0.235
327.00,0.232
328.00,0.228
329.00,0.224
330.00,0.220
331.00,0.216
332.00,0.212
333.00,0.208
334.00,0.203
335.00,0.199
336.00,0.194
337.00,0.190
338.00,0.186
339.00,0.182
340.00,0.177
341.00,0.172
342.00,0.167
343.00,0.163
344.00,0.159
345.00,0.155
346.00,0.150
347.00,0.147
348.00,0.143
349.00,0.139
350.00,0.135
351.00,0.132
352.00,0.128
353.00,0.125
354.00,0.123
355.00,0.119
356.00,0.117
357.00,0.114
358.00,0.111
359.00,0.108
360.00,0.106
361.00,0.104
362.00,0.101
363.00,0.099
364.00,0.098
365.00,0.096
366.00,0.094
367.00,0.092
368.00,0.090
369.00,0.089
370.00,0.087
371.00,0.085
372.00,0.084
373.00,0.082
374.00,0.081
375.00,0.079
376.00,0.078
377.00,0.077
378.00,0.075
379.00,0.074
380.00,0.073
381.00,0.072
382.00,0.070
383.00,0.069
384.00,0.068
385.00,0.067
386.00,0.066
387.00,0.065
388.00,0.064
389.00,0.063
390.00,0.062
391.00,0.061
392.00,0.061
393.00,0.060
394.00,0.059
395.00,0.058
396.00,0.057
397.00,0.057
398.00,0.056
399.00,0.056
400.00,0.055
401.00,0.054
402.00,0.054
403.00,0.053
404.00,0.053
405.00,0.052
406.00,0.052
407.00,0.051
408.00,0.051
409.00,0.050
410.00,0.050
411.00,0.050
412.00,0.049
413.00,0.049
414.00,0.049
415.00,0.048
416.00,0.048
417.00,0.048
418.00,0.048
419.00,0.048
420.00,0.047
421.00,0.047
422.00,0.047
423.00,0.047
424.00,0.046
425.00,0.046
426.00,0.046
427.00,0.046
428.00,0.046
429.00,0.045
430.00,0.045
431.00,0.045
432.00,0.045
433.00,0.045
434.00,0.045
435.00,0.045
436.00,0.044
437.00,0.044
438.00,0.044
439.00,0.044
440.00,0.044
441.00,0.044
442.00,0.044
443.00,0.044
444.00,0.044
445.00,0.044
446.00,0.043
447.00,0.043
448.00,0.043
449.00,0.043
450.00,0.043
451.00,0.043
452.00,0.043
453.00,0.043
454.00,0.043
455.00,0.043
456.00,0.042
457.00,0.042
458.00,0.042
459.00,0.042
460.00,0.042
461.00,0.042
462.00,0.042
463.00,0.042
464.00,0.042
465.00,0.042
466.00,0.042
467.00,0.042
468.00,0.041
469.00,0.041
470.00,0.041
471.00,0.041
472.00,0.041
473.00,0.041
474.00,0.041
475.00,0.041
476.00,0.041
477.00,0.041
478.00,0.041
479.00,0.041
480.00,0.041
481.00,0.041
482.00,0.041
483.00,0.040
484.00,0.040
485.00,0.040
486.00,0.040
487.00,0.040
488.00,0.040
489.00,0.040
490.00,0.040
491.00,0.040
492.00,0.040
493.00,0.040
494.00,0.040
495.00,0.040
496.00,0.040
497.00,0.040
498.00,0.040
499.00,0.040
500.00,0.039
501.00,0.039
502.00,0.039
503.00,0.039
504.00,0.039
505.00,0.039
506.00,0.039
507.00,0.039
508.00,0.039
509.00,0.039
510.00,0.039
511.00,0.039
512.00,0.039
513.00,0.039
514.00,0.039
515.00,0.039
516.00,0.039
517.00,0.039
518.00,0.039
519.00,0.038
520.00,0.038
521.00,0.038
522.00,0.038
523.00,0.038
524.00,0.038
525.00,0.038
526.00,0.038
527.00,0.038
528.00,0.038
529.00,0.038
530.00,0.038
531.00,0.038
532.00,0.038
533.00,0.038
534.00,0.038
535.00,0.038
536.00,0.038
537.00,0.038
538.00,0.038
539.00,0.038
540.00,0.038
541.00,0.038
542.00,0.038
543.00,0.037
544.00,0.037
545.00,0.037
546.00,0.037
547.00,0.037
548.00,0.037
549.00,0.037
550.00,0.037
551.00,0.037
552.00,0.037
553.00,0.037
554.00,0.037
555.00,0.037
556.00,0.037
557.00,0.037
558.00,0.037
559.00,0.037
560.00,0.037
561.00,0.037
562.00,0.037
563.00,0.037
564.00,0.037
565.00,0.037
566.00,0.037
567.00,0.037
568.00,0.037
569.00,0.037
570.00,0.037
571.00,0.037
572.00,0.037
573.00,0.037
574.00,0.037
575.00,0.037
576.00,0.037
577.00,0.036
578.00,0.036
579.00,0.036
580.00,0.036
581.00,0.036
582.00,0.036
583.00,0.036
584.00,0.036
585.00,0.036
586.00,0.036
587.00,0.036
588.00,0.036
589.00,0.036
590.00,0.036
591.00,0.036
592.00,0.036
593.00,0.036
594.00,0.036
595.00,0.036
596.00,0.036
597.00,0.036
598.00,0.036
599.00,0.037
600.00,0.037
601.00,0.037
602.00,0.037
603.00,0.037
604.00,0.037
605.00,0.037
606.00,0.037
607.00,0.036
608.00,0.036
609.00,0.036
610.00,0.036
611.00,0.036
612.00,0.036
613.00,0.036
614.00,0.036
615.00,0.036
616.00,0.036
617.00,0.036
618.00,0.036
619.00,0.036
620.00,0.036
621.00,0.036
622.00,0.036
623.00,0.036
624.00,0.036
625.00,0.036
626.00,0.036
627.00,0.036
628.00,0.036
629.00,0.036
630.00,0.036
631.00,0.036
632.00,0.036
633.00,0.036
634.00,0.036
635.00,0.036
636.00,0.036
637.00,0.036
638.00,0.036
639.00,0.036
640.00,0.036
641.00,0.036
642.00,0.036
643.00,0.036
644.00,0.036
645.00,0.036
646.00,0.036
647.00,0.036
648.00,0.036
649.00,0.036
650.00,0.036
651.00,0.036
652.00,0.036
653.00,0.036
654.00,0.036
655.00,0.036
656.00,0.036
657.00,0.036
658.00,0.036
659.00,0.036
660.00,0.036
661.00,0.036
662.00,0.036
663.00,0.036
664.00,0.036
665.00,0.036
666.00,0.036
667.00,0.036
668.00,0.036
669.00,0.036
670.00,0.036
671.00,0.036
672.00,0.036
673.00,0.036
674.00,0.036
675.00,0.036
676.00,0.036
677.00,0.036
678.00,0.036
679.00,0.036
680.00,0.036
681.00,0.036
682.00,0.036
683.00,0.036
684.00,0.036
685.00,0.036
686.00,0.036
687.00,0.036
688.00,0.036
689.00,0.036
690.00,0.036
691.00,0.036
692.00,0.036
693.00,0.036
694.00,0.036
695.00,0.036
696.00,0.036
697.00,0.036
698.00,0.036
699.00,0.036
700.00,0.037
701.00,0.037
702.00,0.037
703.00,0.037
704.00,0.037
705.00,0.037
706.00,0.037
707.00,0.037
708.00,0.037
709.00,0.037
710.00,0.037
711.00,0.037
712.00,0.037
713.00,0.038
714.00,0.038
715.00,0.038
716.00,0.038
717.00,0.038
718.00,0.038
719.00,0.038
720.00,0.039
721.00,0.039
722.00,0.039
723.00,0.039
724.00,0.040
725.00,0.040
726.00,0.040
727.00,0.040
728.00,0.041
729.00,0.041
730.00,0.042
731.00,0.042
732.00,0.042
733.00,0.043
734.00,0.043
735.00,0.043
736.00,0.044
737.00,0.044
738.00,0.044
739.00,0.044
740.00,0.044
741.00,0.044
742.00,0.044
743.00,0.044
744.00,0.045
745.00,0.045
746.00,0.045
747.00,0.045
748.00,0.045
749.00,0.045
750.00,0.045
751.00,0.045
752.00,0.045
753.00,0.045
754.00,0.045
755.00,0.045
756.00,0.045
757.00,0.045
758.00,0.045
759.00,0.045
760.00,0.045
761.00,0.045
762.00,0.045
763.00,0.045
764.00,0.045
765.00,0.045
766.00,0.045
767.00,0.045
768.00,0.045
769.00,0.045
770.00,0.045
771.00,0.045
772.00,0.045
773.00,0.045
774.00,0.045
775.00,0.045
776.00,0.044
777.00,0.044
778.00,0.044
779.00,0.044
780.00,0.044
781.00,0.044
782.00,0.044
783.00,0.044
784.00,0.044
785.00,0.044
786.00,0.044
787.00,0.044
788.00,0.044
789.00,0.044
790.00,0.043
791.00,0.043
792.00,0.043
793.00,0.043
794.00,0.043
795.00,0.043
796.00,0.043
797.00,0.043
798.00,0.043
799.00,0.043
800.00,0.043
801.00,0.043
802.00,0.042
803.00,0.042
804.00,0.042
805.00,0.042
806.00,0.042
807.00,0.042
808.00,0.042
809.00,0.042
810.00,0.042
811.00,0.042
812.00,0.042
813.00,0.042
814.00,0.042
815.00,0.042
816.00,0.042
817.00,0.042
818.00,0.042
819.00,0.042
820.00,0.043
821.00,0.043
822.00,0.043
823.00,0.043
824.00,0.043
825.00,0.044
826.00,0.044
827.00,0.045
828.00,0.045
829.00,0.046
830.00,0.046
831.00,0.046
832.00,0.047
833.00,0.047
834.00,0.047
835.00,0.048
836.00,0.048
837.00,0.048
838.00,0.048
839.00,0.048
840.00,0.049
841.00,0.049
842.00,0.049
843.00,0.049
844.00,0.049
845.00,0.049
846.00,0.049
847.00,0.049
848.00,0.050
849.00,0.050
850.00,0.050
851.00,0.050
852.00,0.050
853.00,0.050
854.00,0.050
855.00,0.050
856.00,0.051
857.00,0.051
858.00,0.051
859.00,0.051
860.00,0.051
861.00,0.051
862.00,0.051
863.00,0.052
864.00,0.052
865.00,0.052
866.00,0.052
867.00,0.052
868.00,0.052
869.00,0.052
870.00,0.053
871.00,0.053
872.00,0.053
873.00,0.053
874.00,0.053
875.00,0.054
876.00,0.054
877.00,0.054
878.00,0.054
879.00,0.055
880.00,0.055
881.00,0.055
882.00,0.055
883.00,0.056
884.00,0.056
885.00,0.056
886.00,0.056
887.00,0.057
888.00,0.057
889.00,0.057
890.00,0.057
891.00,0.058
892.00,0.058
893.00,0.058
894.00,0.058
895.00,0.058
896.00,0.059
897.00,0.059
898.00,0.059
899.00,0.059
900.00,0.060
