"BorealeIPA50x - RawData"
"Wavelength nm.","Abs."
190.00,3.089
191.00,3.664
192.00,3.964
193.00,3.918
194.00,3.788
195.00,3.930
196.00,3.965
197.00,3.964
198.00,3.867
199.00,3.785
200.00,3.947
201.00,3.867
202.00,3.936
203.00,3.941
204.00,3.932
205.00,3.976
206.00,3.959
207.00,3.903
208.00,3.878
209.00,3.991
210.00,3.742
211.00,3.828
212.00,3.765
213.00,3.481
214.00,3.305
215.00,3.241
216.00,3.064
217.00,2.928
218.00,2.790
219.00,2.668
220.00,2.530
221.00,2.416
222.00,2.303
223.00,2.189
224.00,2.076
225.00,1.966
226.00,1.856
227.00,1.742
228.00,1.634
229.00,1.536
230.00,1.444
231.00,1.361
232.00,1.287
233.00,1.222
234.00,1.167
235.00,1.118
236.00,1.077
237.00,1.043
238.00,1.014
239.00,0.991
240.00,0.972
241.00,0.957
242.00,0.947
243.00,0.940
244.00,0.935
245.00,0.933
246.00,0.932
247.00,0.932
248.00,0.933
249.00,0.936
250.00,0.939
251.00,0.943
252.00,0.948
253.00,0.954
254.00,0.959
255.00,0.965
256.00,0.970
257.00,0.975
258.00,0.978
259.00,0.980
260.00,0.983
261.00,0.984
262.00,0.986
263.00,0.988
264.00,0.989
265.00,0.990
266.00,0.990
267.00,0.991
268.00,0.989
269.00,0.986
270.00,0.981
271.00,0.975
272.00,0.967
273.00,0.957
274.00,0.946
275.00,0.934
276.00,0.921
277.00,0.906
278.00,0.890
279.00,0.873
280.00,0.855
281.00,0.836
282.00,0.815
283.00,0.793
284.00,0.770
285.00,0.745
286.00,0.722
287.00,0.700
288.00,0.677
289.00,0.653
290.00,0.628
291.00,0.604
292.00,0.583
293.00,0.564
294.00,0.549
295.00,0.535
296.00,0.523
297.00,0.513
298.00,0.502
299.00,0.493
300.00,0.485
301.00,0.478
302.00,0.471
303.00,0.464
304.00,0.458
305.00,0.452
306.00,0.446
307.00,0.440
308.00,0.435
309.00,0.429
310.00,0.424
311.00,0.418
312.00,0.413
313.00,0.408
314.00,0.403
315.00,0.398
316.00,0.393
317.00,0.387
318.00,0.382
319.00,0.377
320.00,0.371
321.00,0.366
322.00,0.360
323.00,0.354
324.00,0.348
325.00,0.341
326.00,0.336
327.00,0.329
328.00,0.323
329.00,0.317
330.00,0.310
331.00,0.303
332.00,0.297
333.00,0.291
334.00,0.284
335.00,0.278
336.00,0.272
337.00,0.265
338.00,0.259
339.00,0.253
340.00,0.247
341.00,0.240
342.00,0.234
343.00,0.228
344.00,0.223
345.00,0.218
346.00,0.212
347.00,0.207
348.00,0.202
349.00,0.197
350.00,0.193
351.00,0.188
352.00,0.184
353.00,0.179
354.00,0.175
355.00,0.172
356.00,0.168
357.00,0.164
358.00,0.161
359.00,0.157
360.00,0.154
361.00,0.151
362.00,0.148
363.00,0.145
364.00,0.142
365.00,0.139
366.00,0.137
367.00,0.135
368.00,0.132
369.00,0.130
370.00,0.128
371.00,0.125
372.00,0.123
373.00,0.121
374.00,0.119
375.00,0.117
376.00,0.115
377.00,0.113
378.00,0.111
379.00,0.109
380.00,0.108
381.00,0.106
382.00,0.104
383.00,0.103
384.00,0.101
385.00,0.099
386.00,0.098
387.00,0.097
388.00,0.095
389.00,0.094
390.00,0.093
391.00,0.091
392.00,0.090
393.00,0.089
394.00,0.088
395.00,0.087
396.00,0.086
397.00,0.085
398.00,0.084
399.00,0.083
400.00,0.082
401.00,0.081
402.00,0.080
403.00,0.079
404.00,0.078
405.00,0.078
406.00,0.077
407.00,0.076
408.00,0.075
409.00,0.075
410.00,0.074
411.00,0.074
412.00,0.073
413.00,0.072
414.00,0.072
415.00,0.071
416.00,0.071
417.00,0.070
418.00,0.070
419.00,0.069
420.00,0.069
421.00,0.069
422.00,0.068
423.00,0.068
424.00,0.067
425.00,0.067
426.00,0.066
427.00,0.066
428.00,0.066
429.00,0.065
430.00,0.065
431.00,0.065
432.00,0.064
433.00,0.064
434.00,0.064
435.00,0.063
436.00,0.063
437.00,0.063
438.00,0.062
439.00,0.062
440.00,0.062
441.00,0.061
442.00,0.061
443.00,0.061
444.00,0.061
445.00,0.060
446.00,0.060
447.00,0.060
448.00,0.060
449.00,0.059
450.00,0.059
451.00,0.059
452.00,0.059
453.00,0.058
454.00,0.058
455.00,0.058
456.00,0.058
457.00,0.058
458.00,0.057
459.00,0.057
460.00,0.057
461.00,0.057
462.00,0.056
463.00,0.056
464.00,0.056
465.00,0.056
466.00,0.056
467.00,0.055
468.00,0.055
469.00,0.055
470.00,0.055
471.00,0.055
472.00,0.054
473.00,0.054
474.00,0.054
475.00,0.054
476.00,0.054
477.00,0.053
478.00,0.053
479.00,0.053
480.00,0.053
481.00,0.053
482.00,0.053
483.00,0.052
484.00,0.052
485.00,0.052
486.00,0.052
487.00,0.052
488.00,0.052
489.00,0.051
490.00,0.051
491.00,0.051
492.00,0.051
493.00,0.051
494.00,0.051
495.00,0.051
496.00,0.050
497.00,0.050
498.00,0.050
499.00,0.050
500.00,0.050
501.00,0.050
502.00,0.050
503.00,0.049
504.00,0.049
505.00,0.049
506.00,0.049
507.00,0.049
508.00,0.049
509.00,0.049
510.00,0.049
511.00,0.049
512.00,0.048
513.00,0.048
514.00,0.048
515.00,0.048
516.00,0.048
517.00,0.048
518.00,0.048
519.00,0.048
520.00,0.048
521.00,0.048
522.00,0.047
523.00,0.047
524.00,0.047
525.00,0.047
526.00,0.047
527.00,0.047
528.00,0.047
529.00,0.047
530.00,0.047
531.00,0.047
532.00,0.047
533.00,0.046
534.00,0.046
535.00,0.046
536.00,0.046
537.00,0.046
538.00,0.046
539.00,0.046
540.00,0.046
541.00,0.046
542.00,0.046
543.00,0.046
544.00,0.045
545.00,0.045
546.00,0.045
547.00,0.045
548.00,0.045
549.00,0.045
550.00,0.045
551.00,0.045
552.00,0.045
553.00,0.045
554.00,0.045
555.00,0.045
556.00,0.045
557.00,0.045
558.00,0.044
559.00,0.044
560.00,0.044
561.00,0.044
562.00,0.044
563.00,0.044
564.00,0.044
565.00,0.044
566.00,0.044
567.00,0.044
568.00,0.044
569.00,0.044
570.00,0.044
571.00,0.044
572.00,0.044
573.00,0.044
574.00,0.044
575.00,0.044
576.00,0.044
577.00,0.043
578.00,0.043
579.00,0.043
580.00,0.043
581.00,0.043
582.00,0.043
583.00,0.043
584.00,0.043
585.00,0.043
586.00,0.043
587.00,0.043
588.00,0.043
589.00,0.043
590.00,0.043
591.00,0.043
592.00,0.043
593.00,0.043
594.00,0.043
595.00,0.043
596.00,0.043
597.00,0.043
598.00,0.043
599.00,0.043
600.00,0.043
601.00,0.043
602.00,0.043
603.00,0.043
604.00,0.043
605.00,0.043
606.00,0.043
607.00,0.043
608.00,0.043
609.00,0.043
610.00,0.043
611.00,0.043
612.00,0.043
613.00,0.043
614.00,0.043
615.00,0.043
616.00,0.042
617.00,0.042
618.00,0.042
619.00,0.042
620.00,0.042
621.00,0.042
622.00,0.042
623.00,0.042
624.00,0.042
625.00,0.042
626.00,0.042
627.00,0.042
628.00,0.042
629.00,0.042
630.00,0.042
631.00,0.042
632.00,0.042
633.00,0.042
634.00,0.042
635.00,0.042
636.00,0.042
637.00,0.042
638.00,0.042
639.00,0.042
640.00,0.042
641.00,0.042
642.00,0.042
643.00,0.042
644.00,0.042
645.00,0.042
646.00,0.042
647.00,0.041
648.00,0.042
649.00,0.042
650.00,0.042
651.00,0.042
652.00,0.042
653.00,0.042
654.00,0.042
655.00,0.042
656.00,0.042
657.00,0.042
658.00,0.042
659.00,0.042
660.00,0.042
661.00,0.041
662.00,0.042
663.00,0.041
664.00,0.041
665.00,0.041
666.00,0.041
667.00,0.041
668.00,0.041
669.00,0.041
670.00,0.041
671.00,0.041
672.00,0.041
673.00,0.041
674.00,0.041
675.00,0.041
676.00,0.041
677.00,0.041
678.00,0.041
679.00,0.041
680.00,0.041
681.00,0.041
682.00,0.041
683.00,0.041
684.00,0.041
685.00,0.041
686.00,0.041
687.00,0.041
688.00,0.041
689.00,0.041
690.00,0.041
691.00,0.041
692.00,0.041
693.00,0.041
694.00,0.041
695.00,0.041
696.00,0.041
697.00,0.041
698.00,0.041
699.00,0.041
700.00,0.041
701.00,0.041
702.00,0.041
703.00,0.042
704.00,0.042
705.00,0.042
706.00,0.042
707.00,0.042
708.00,0.042
709.00,0.042
710.00,0.042
711.00,0.042
712.00,0.042
713.00,0.042
714.00,0.043
715.00,0.043
716.00,0.043
717.00,0.043
718.00,0.043
719.00,0.043
720.00,0.044
721.00,0.044
722.00,0.044
723.00,0.044
724.00,0.044
725.00,0.045
726.00,0.045
727.00,0.045
728.00,0.046
729.00,0.046
730.00,0.047
731.00,0.047
732.00,0.048
733.00,0.048
734.00,0.048
735.00,0.049
736.00,0.049
737.00,0.049
738.00,0.049
739.00,0.050
740.00,0.050
741.00,0.050
742.00,0.050
743.00,0.050
744.00,0.050
745.00,0.050
746.00,0.050
747.00,0.050
748.00,0.050
749.00,0.050
750.00,0.050
751.00,0.050
752.00,0.050
753.00,0.050
754.00,0.050
755.00,0.050
756.00,0.050
757.00,0.050
758.00,0.050
759.00,0.050
760.00,0.050
761.00,0.050
762.00,0.050
763.00,0.050
764.00,0.050
765.00,0.050
766.00,0.049
767.00,0.049
768.00,0.049
769.00,0.049
770.00,0.049
771.00,0.049
772.00,0.049
773.00,0.049
774.00,0.049
775.00,0.049
776.00,0.049
777.00,0.049
778.00,0.049
779.00,0.049
780.00,0.049
781.00,0.048
782.00,0.048
783.00,0.048
784.00,0.048
785.00,0.048
786.00,0.048
787.00,0.048
788.00,0.048
789.00,0.048
790.00,0.047
791.00,0.047
792.00,0.047
793.00,0.047
794.00,0.047
795.00,0.047
796.00,0.047
797.00,0.047
798.00,0.047
799.00,0.047
800.00,0.047
801.00,0.046
802.00,0.046
803.00,0.046
804.00,0.046
805.00,0.046
806.00,0.046
807.00,0.046
808.00,0.046
809.00,0.046
810.00,0.046
811.00,0.046
812.00,0.046
813.00,0.046
814.00,0.046
815.00,0.046
816.00,0.046
817.00,0.046
818.00,0.046
819.00,0.047
820.00,0.047
821.00,0.047
822.00,0.047
823.00,0.047
824.00,0.048
825.00,0.048
826.00,0.048
827.00,0.049
828.00,0.049
829.00,0.050
830.00,0.051
831.00,0.051
832.00,0.052
833.00,0.052
834.00,0.052
835.00,0.052
836.00,0.053
837.00,0.053
838.00,0.053
839.00,0.053
840.00,0.053
841.00,0.053
842.00,0.053
843.00,0.054
844.00,0.054
845.00,0.054
846.00,0.054
847.00,0.054
848.00,0.054
849.00,0.054
850.00,0.054
851.00,0.055
852.00,0.055
853.00,0.055
854.00,0.055
855.00,0.055
856.00,0.055
857.00,0.055
858.00,0.055
859.00,0.055
860.00,0.055
861.00,0.055
862.00,0.055
863.00,0.056
864.00,0.056
865.00,0.056
866.00,0.056
867.00,0.056
868.00,0.056
869.00,0.056
870.00,0.057
871.00,0.057
872.00,0.057
873.00,0.057
874.00,0.057
875.00,0.057
876.00,0.058
877.00,0.058
878.00,0.058
879.00,0.058
880.00,0.058
881.00,0.059
882.00,0.059
883.00,0.059
884.00,0.059
885.00,0.060
886.00,0.060
887.00,0.060
888.00,0.060
889.00,0.061
890.00,0.061
891.00,0.061
892.00,0.061
893.00,0.062
894.00,0.062
895.00,0.062
896.00,0.062
897.00,0.063
898.00,0.063
899.00,0.063
900.00,0.063
