"AbriTempeteTerreFerme_25x - RawData"
"Wavelength nm.","Abs."
190.00,3.551
191.00,3.786
192.00,3.894
193.00,3.704
194.00,3.777
195.00,3.702
196.00,3.756
197.00,3.780
198.00,3.718
199.00,3.797
200.00,3.785
201.00,3.896
202.00,3.940
203.00,3.778
204.00,3.945
205.00,3.892
206.00,3.897
207.00,3.937
208.00,3.979
209.00,3.979
210.00,3.900
211.00,3.997
212.00,3.967
213.00,3.875
214.00,3.942
215.00,3.884
216.00,3.860
217.00,3.963
218.00,3.964
219.00,3.832
220.00,3.718
221.00,3.689
222.00,3.546
223.00,3.391
224.00,3.236
225.00,3.139
226.00,2.992
227.00,2.839
228.00,2.690
229.00,2.546
230.00,2.423
231.00,2.309
232.00,2.204
233.00,2.110
234.00,2.027
235.00,1.957
236.00,1.896
237.00,1.843
238.00,1.798
239.00,1.759
240.00,1.728
241.00,1.703
242.00,1.686
243.00,1.673
244.00,1.665
245.00,1.660
246.00,1.658
247.00,1.659
248.00,1.662
249.00,1.665
250.00,1.670
251.00,1.677
252.00,1.686
253.00,1.692
254.00,1.703
255.00,1.711
256.00,1.720
257.00,1.727
258.00,1.732
259.00,1.734
260.00,1.735
261.00,1.736
262.00,1.737
263.00,1.741
264.00,1.741
265.00,1.739
266.00,1.739
267.00,1.732
268.00,1.728
269.00,1.722
270.00,1.710
271.00,1.694
272.00,1.678
273.00,1.658
274.00,1.637
275.00,1.615
276.00,1.592
277.00,1.564
278.00,1.538
279.00,1.510
280.00,1.479
281.00,1.445
282.00,1.411
283.00,1.374
284.00,1.335
285.00,1.296
286.00,1.260
287.00,1.223
288.00,1.183
289.00,1.143
290.00,1.100
291.00,1.060
292.00,1.024
293.00,0.991
294.00,0.963
295.00,0.938
296.00,0.916
297.00,0.896
298.00,0.877
299.00,0.860
300.00,0.844
301.00,0.830
302.00,0.816
303.00,0.803
304.00,0.792
305.00,0.781
306.00,0.771
307.00,0.760
308.00,0.750
309.00,0.741
310.00,0.732
311.00,0.723
312.00,0.714
313.00,0.706
314.00,0.699
315.00,0.690
316.00,0.682
317.00,0.674
318.00,0.665
319.00,0.657
320.00,0.648
321.00,0.639
322.00,0.630
323.00,0.621
324.00,0.612
325.00,0.601
326.00,0.592
327.00,0.582
328.00,0.571
329.00,0.561
330.00,0.550
331.00,0.539
332.00,0.529
333.00,0.517
334.00,0.506
335.00,0.496
336.00,0.486
337.00,0.475
338.00,0.464
339.00,0.454
340.00,0.444
341.00,0.432
342.00,0.422
343.00,0.412
344.00,0.402
345.00,0.393
346.00,0.384
347.00,0.375
348.00,0.366
349.00,0.357
350.00,0.349
351.00,0.340
352.00,0.332
353.00,0.325
354.00,0.317
355.00,0.310
356.00,0.304
357.00,0.297
358.00,0.290
359.00,0.283
360.00,0.277
361.00,0.271
362.00,0.265
363.00,0.260
364.00,0.255
365.00,0.250
366.00,0.245
367.00,0.241
368.00,0.236
369.00,0.231
370.00,0.227
371.00,0.222
372.00,0.218
373.00,0.215
374.00,0.211
375.00,0.207
376.00,0.203
377.00,0.200
378.00,0.196
379.00,0.193
380.00,0.189
381.00,0.186
382.00,0.183
383.00,0.180
384.00,0.177
385.00,0.174
386.00,0.171
387.00,0.169
388.00,0.166
389.00,0.163
390.00,0.161
391.00,0.159
392.00,0.156
393.00,0.154
394.00,0.152
395.00,0.149
396.00,0.147
397.00,0.146
398.00,0.144
399.00,0.142
400.00,0.140
401.00,0.138
402.00,0.137
403.00,0.135
404.00,0.134
405.00,0.132
406.00,0.131
407.00,0.129
408.00,0.128
409.00,0.127
410.00,0.125
411.00,0.124
412.00,0.123
413.00,0.122
414.00,0.121
415.00,0.119
416.00,0.118
417.00,0.118
418.00,0.117
419.00,0.116
420.00,0.115
421.00,0.114
422.00,0.113
423.00,0.112
424.00,0.111
425.00,0.110
426.00,0.110
427.00,0.109
428.00,0.108
429.00,0.107
430.00,0.107
431.00,0.106
432.00,0.105
433.00,0.105
434.00,0.104
435.00,0.103
436.00,0.103
437.00,0.102
438.00,0.101
439.00,0.101
440.00,0.100
441.00,0.100
442.00,0.099
443.00,0.099
444.00,0.098
445.00,0.098
446.00,0.097
447.00,0.096
448.00,0.096
449.00,0.096
450.00,0.095
451.00,0.095
452.00,0.094
453.00,0.094
454.00,0.093
455.00,0.093
456.00,0.092
457.00,0.092
458.00,0.091
459.00,0.091
460.00,0.090
461.00,0.090
462.00,0.090
463.00,0.089
464.00,0.089
465.00,0.088
466.00,0.088
467.00,0.087
468.00,0.087
469.00,0.087
470.00,0.086
471.00,0.086
472.00,0.085
473.00,0.085
474.00,0.085
475.00,0.084
476.00,0.084
477.00,0.084
478.00,0.083
479.00,0.083
480.00,0.082
481.00,0.082
482.00,0.082
483.00,0.081
484.00,0.081
485.00,0.081
486.00,0.080
487.00,0.080
488.00,0.080
489.00,0.079
490.00,0.079
491.00,0.079
492.00,0.078
493.00,0.078
494.00,0.078
495.00,0.077
496.00,0.077
497.00,0.077
498.00,0.077
499.00,0.076
500.00,0.076
501.00,0.076
502.00,0.075
503.00,0.075
504.00,0.075
505.00,0.075
506.00,0.074
507.00,0.074
508.00,0.074
509.00,0.073
510.00,0.073
511.00,0.073
512.00,0.073
513.00,0.073
514.00,0.072
515.00,0.072
516.00,0.072
517.00,0.072
518.00,0.071
519.00,0.071
520.00,0.071
521.00,0.071
522.00,0.070
523.00,0.070
524.00,0.070
525.00,0.070
526.00,0.070
527.00,0.069
528.00,0.069
529.00,0.069
530.00,0.069
531.00,0.068
532.00,0.068
533.00,0.068
534.00,0.068
535.00,0.068
536.00,0.068
537.00,0.067
538.00,0.067
539.00,0.067
540.00,0.067
541.00,0.067
542.00,0.066
543.00,0.066
544.00,0.066
545.00,0.066
546.00,0.066
547.00,0.066
548.00,0.065
549.00,0.065
550.00,0.065
551.00,0.065
552.00,0.065
553.00,0.065
554.00,0.064
555.00,0.064
556.00,0.064
557.00,0.064
558.00,0.064
559.00,0.064
560.00,0.064
561.00,0.064
562.00,0.063
563.00,0.063
564.00,0.063
565.00,0.063
566.00,0.063
567.00,0.063
568.00,0.063
569.00,0.063
570.00,0.062
571.00,0.062
572.00,0.062
573.00,0.062
574.00,0.062
575.00,0.062
576.00,0.062
577.00,0.062
578.00,0.061
579.00,0.061
580.00,0.061
581.00,0.061
582.00,0.061
583.00,0.061
584.00,0.061
585.00,0.061
586.00,0.061
587.00,0.061
588.00,0.061
589.00,0.060
590.00,0.060
591.00,0.060
592.00,0.060
593.00,0.060
594.00,0.060
595.00,0.060
596.00,0.060
597.00,0.060
598.00,0.060
599.00,0.060
600.00,0.060
601.00,0.060
602.00,0.060
603.00,0.060
604.00,0.059
605.00,0.059
606.00,0.059
607.00,0.059
608.00,0.059
609.00,0.059
610.00,0.059
611.00,0.059
612.00,0.059
613.00,0.059
614.00,0.059
615.00,0.059
616.00,0.058
617.00,0.058
618.00,0.058
619.00,0.058
620.00,0.058
621.00,0.058
622.00,0.058
623.00,0.058
624.00,0.058
625.00,0.058
626.00,0.058
627.00,0.058
628.00,0.057
629.00,0.057
630.00,0.057
631.00,0.057
632.00,0.057
633.00,0.057
634.00,0.057
635.00,0.057
636.00,0.057
637.00,0.057
638.00,0.057
639.00,0.057
640.00,0.057
641.00,0.057
642.00,0.057
643.00,0.057
644.00,0.057
645.00,0.057
646.00,0.056
647.00,0.056
648.00,0.056
649.00,0.056
650.00,0.056
651.00,0.056
652.00,0.056
653.00,0.056
654.00,0.056
655.00,0.056
656.00,0.056
657.00,0.056
658.00,0.056
659.00,0.056
660.00,0.056
661.00,0.056
662.00,0.056
663.00,0.056
664.00,0.056
665.00,0.056
666.00,0.056
667.00,0.055
668.00,0.055
669.00,0.055
670.00,0.055
671.00,0.055
672.00,0.055
673.00,0.055
674.00,0.055
675.00,0.055
676.00,0.055
677.00,0.055
678.00,0.055
679.00,0.055
680.00,0.055
681.00,0.055
682.00,0.055
683.00,0.055
684.00,0.055
685.00,0.055
686.00,0.055
687.00,0.055
688.00,0.055
689.00,0.055
690.00,0.055
691.00,0.055
692.00,0.055
693.00,0.055
694.00,0.055
695.00,0.054
696.00,0.055
697.00,0.055
698.00,0.055
699.00,0.055
700.00,0.055
701.00,0.055
702.00,0.055
703.00,0.055
704.00,0.055
705.00,0.055
706.00,0.055
707.00,0.055
708.00,0.055
709.00,0.055
710.00,0.055
711.00,0.055
712.00,0.055
713.00,0.055
714.00,0.055
715.00,0.055
716.00,0.056
717.00,0.056
718.00,0.056
719.00,0.056
720.00,0.056
721.00,0.056
722.00,0.057
723.00,0.057
724.00,0.057
725.00,0.057
726.00,0.057
727.00,0.058
728.00,0.058
729.00,0.059
730.00,0.059
731.00,0.060
732.00,0.060
733.00,0.060
734.00,0.061
735.00,0.061
736.00,0.061
737.00,0.062
738.00,0.062
739.00,0.062
740.00,0.062
741.00,0.062
742.00,0.062
743.00,0.062
744.00,0.062
745.00,0.062
746.00,0.062
747.00,0.062
748.00,0.062
749.00,0.062
750.00,0.062
751.00,0.062
752.00,0.062
753.00,0.062
754.00,0.062
755.00,0.062
756.00,0.062
757.00,0.062
758.00,0.062
759.00,0.062
760.00,0.062
761.00,0.062
762.00,0.062
763.00,0.062
764.00,0.061
765.00,0.061
766.00,0.061
767.00,0.061
768.00,0.061
769.00,0.061
770.00,0.061
771.00,0.061
772.00,0.061
773.00,0.061
774.00,0.061
775.00,0.060
776.00,0.060
777.00,0.060
778.00,0.060
779.00,0.060
780.00,0.060
781.00,0.060
782.00,0.060
783.00,0.060
784.00,0.060
785.00,0.059
786.00,0.059
787.00,0.059
788.00,0.059
789.00,0.059
790.00,0.059
791.00,0.059
792.00,0.059
793.00,0.059
794.00,0.058
795.00,0.058
796.00,0.058
797.00,0.058
798.00,0.058
799.00,0.058
800.00,0.058
801.00,0.058
802.00,0.058
803.00,0.057
804.00,0.057
805.00,0.057
806.00,0.057
807.00,0.057
808.00,0.057
809.00,0.057
810.00,0.057
811.00,0.057
812.00,0.057
813.00,0.057
814.00,0.057
815.00,0.057
816.00,0.057
817.00,0.057
818.00,0.057
819.00,0.058
820.00,0.058
821.00,0.058
822.00,0.058
823.00,0.058
824.00,0.058
825.00,0.059
826.00,0.059
827.00,0.060
828.00,0.060
829.00,0.061
830.00,0.061
831.00,0.062
832.00,0.062
833.00,0.063
834.00,0.063
835.00,0.063
836.00,0.063
837.00,0.064
838.00,0.064
839.00,0.064
840.00,0.064
841.00,0.064
842.00,0.064
843.00,0.064
844.00,0.064
845.00,0.064
846.00,0.064
847.00,0.065
848.00,0.065
849.00,0.065
850.00,0.065
851.00,0.065
852.00,0.065
853.00,0.065
854.00,0.065
855.00,0.065
856.00,0.065
857.00,0.066
858.00,0.066
859.00,0.066
860.00,0.066
861.00,0.066
862.00,0.066
863.00,0.066
864.00,0.066
865.00,0.066
866.00,0.066
867.00,0.066
868.00,0.067
869.00,0.067
870.00,0.067
871.00,0.067
872.00,0.067
873.00,0.067
874.00,0.068
875.00,0.068
876.00,0.068
877.00,0.068
878.00,0.068
879.00,0.069
880.00,0.069
881.00,0.069
882.00,0.069
883.00,0.069
884.00,0.070
885.00,0.070
886.00,0.070
887.00,0.070
888.00,0.071
889.00,0.071
890.00,0.071
891.00,0.071
892.00,0.071
893.00,0.072
894.00,0.072
895.00,0.072
896.00,0.072
897.00,0.073
898.00,0.073
899.00,0.073
900.00,0.073
