"AbriTempetePalabre_50x - RawData"
"Wavelength nm.","Abs."
190.00,3.497
191.00,2.830
192.00,2.990
193.00,3.037
194.00,3.033
195.00,3.067
196.00,3.114
197.00,3.274
198.00,3.138
199.00,3.261
200.00,3.316
201.00,3.253
202.00,3.303
203.00,3.202
204.00,3.169
205.00,3.090
206.00,2.966
207.00,2.924
208.00,2.811
209.00,2.713
210.00,2.590
211.00,2.479
212.00,2.378
213.00,2.279
214.00,2.182
215.00,2.082
216.00,1.988
217.00,1.896
218.00,1.810
219.00,1.721
220.00,1.636
221.00,1.557
222.00,1.482
223.00,1.408
224.00,1.332
225.00,1.260
226.00,1.189
227.00,1.117
228.00,1.049
229.00,0.986
230.00,0.928
231.00,0.877
232.00,0.833
233.00,0.795
234.00,0.762
235.00,0.735
236.00,0.712
237.00,0.693
238.00,0.678
239.00,0.667
240.00,0.658
241.00,0.651
242.00,0.647
243.00,0.645
244.00,0.644
245.00,0.644
246.00,0.645
247.00,0.647
248.00,0.649
249.00,0.652
250.00,0.655
251.00,0.659
252.00,0.662
253.00,0.666
254.00,0.669
255.00,0.673
256.00,0.675
257.00,0.677
258.00,0.678
259.00,0.679
260.00,0.678
261.00,0.678
262.00,0.678
263.00,0.678
264.00,0.677
265.00,0.675
266.00,0.674
267.00,0.672
268.00,0.670
269.00,0.666
270.00,0.662
271.00,0.655
272.00,0.649
273.00,0.640
274.00,0.631
275.00,0.621
276.00,0.610
277.00,0.599
278.00,0.587
279.00,0.574
280.00,0.560
281.00,0.546
282.00,0.530
283.00,0.514
284.00,0.496
285.00,0.478
286.00,0.462
287.00,0.445
288.00,0.428
289.00,0.411
290.00,0.392
291.00,0.373
292.00,0.357
293.00,0.343
294.00,0.331
295.00,0.320
296.00,0.310
297.00,0.302
298.00,0.295
299.00,0.288
300.00,0.282
301.00,0.276
302.00,0.272
303.00,0.267
304.00,0.264
305.00,0.260
306.00,0.257
307.00,0.254
308.00,0.252
309.00,0.249
310.00,0.247
311.00,0.245
312.00,0.243
313.00,0.241
314.00,0.239
315.00,0.238
316.00,0.236
317.00,0.234
318.00,0.232
319.00,0.230
320.00,0.227
321.00,0.225
322.00,0.223
323.00,0.221
324.00,0.218
325.00,0.215
326.00,0.212
327.00,0.209
328.00,0.206
329.00,0.203
330.00,0.199
331.00,0.196
332.00,0.193
333.00,0.189
334.00,0.186
335.00,0.182
336.00,0.178
337.00,0.175
338.00,0.171
339.00,0.168
340.00,0.165
341.00,0.160
342.00,0.156
343.00,0.153
344.00,0.149
345.00,0.146
346.00,0.143
347.00,0.140
348.00,0.137
349.00,0.133
350.00,0.130
351.00,0.127
352.00,0.124
353.00,0.122
354.00,0.119
355.00,0.116
356.00,0.114
357.00,0.111
358.00,0.109
359.00,0.106
360.00,0.104
361.00,0.102
362.00,0.100
363.00,0.098
364.00,0.097
365.00,0.095
366.00,0.093
367.00,0.091
368.00,0.090
369.00,0.089
370.00,0.087
371.00,0.086
372.00,0.084
373.00,0.083
374.00,0.082
375.00,0.081
376.00,0.079
377.00,0.078
378.00,0.077
379.00,0.076
380.00,0.075
381.00,0.074
382.00,0.073
383.00,0.072
384.00,0.071
385.00,0.070
386.00,0.069
387.00,0.068
388.00,0.067
389.00,0.066
390.00,0.066
391.00,0.065
392.00,0.064
393.00,0.063
394.00,0.063
395.00,0.062
396.00,0.061
397.00,0.061
398.00,0.060
399.00,0.060
400.00,0.059
401.00,0.059
402.00,0.058
403.00,0.058
404.00,0.057
405.00,0.057
406.00,0.056
407.00,0.056
408.00,0.056
409.00,0.055
410.00,0.055
411.00,0.055
412.00,0.054
413.00,0.054
414.00,0.054
415.00,0.053
416.00,0.053
417.00,0.053
418.00,0.053
419.00,0.052
420.00,0.052
421.00,0.052
422.00,0.052
423.00,0.052
424.00,0.051
425.00,0.051
426.00,0.051
427.00,0.051
428.00,0.051
429.00,0.050
430.00,0.050
431.00,0.050
432.00,0.050
433.00,0.050
434.00,0.050
435.00,0.050
436.00,0.049
437.00,0.049
438.00,0.049
439.00,0.049
440.00,0.049
441.00,0.049
442.00,0.049
443.00,0.049
444.00,0.049
445.00,0.048
446.00,0.048
447.00,0.048
448.00,0.048
449.00,0.048
450.00,0.048
451.00,0.048
452.00,0.048
453.00,0.048
454.00,0.048
455.00,0.047
456.00,0.047
457.00,0.047
458.00,0.047
459.00,0.047
460.00,0.047
461.00,0.047
462.00,0.047
463.00,0.047
464.00,0.047
465.00,0.047
466.00,0.046
467.00,0.046
468.00,0.046
469.00,0.046
470.00,0.046
471.00,0.046
472.00,0.046
473.00,0.046
474.00,0.046
475.00,0.046
476.00,0.046
477.00,0.045
478.00,0.045
479.00,0.045
480.00,0.045
481.00,0.045
482.00,0.045
483.00,0.045
484.00,0.045
485.00,0.045
486.00,0.045
487.00,0.045
488.00,0.045
489.00,0.045
490.00,0.044
491.00,0.044
492.00,0.044
493.00,0.044
494.00,0.044
495.00,0.044
496.00,0.044
497.00,0.044
498.00,0.044
499.00,0.044
500.00,0.044
501.00,0.044
502.00,0.044
503.00,0.044
504.00,0.044
505.00,0.043
506.00,0.043
507.00,0.043
508.00,0.043
509.00,0.043
510.00,0.043
511.00,0.043
512.00,0.043
513.00,0.043
514.00,0.043
515.00,0.043
516.00,0.043
517.00,0.043
518.00,0.043
519.00,0.043
520.00,0.043
521.00,0.043
522.00,0.042
523.00,0.042
524.00,0.042
525.00,0.042
526.00,0.042
527.00,0.042
528.00,0.042
529.00,0.042
530.00,0.042
531.00,0.042
532.00,0.042
533.00,0.042
534.00,0.042
535.00,0.042
536.00,0.042
537.00,0.042
538.00,0.042
539.00,0.042
540.00,0.042
541.00,0.042
542.00,0.042
543.00,0.042
544.00,0.041
545.00,0.041
546.00,0.041
547.00,0.041
548.00,0.041
549.00,0.041
550.00,0.041
551.00,0.041
552.00,0.041
553.00,0.041
554.00,0.041
555.00,0.041
556.00,0.041
557.00,0.041
558.00,0.041
559.00,0.041
560.00,0.041
561.00,0.041
562.00,0.041
563.00,0.041
564.00,0.041
565.00,0.041
566.00,0.041
567.00,0.041
568.00,0.040
569.00,0.040
570.00,0.040
571.00,0.040
572.00,0.040
573.00,0.040
574.00,0.040
575.00,0.040
576.00,0.040
577.00,0.040
578.00,0.040
579.00,0.040
580.00,0.040
581.00,0.040
582.00,0.040
583.00,0.040
584.00,0.040
585.00,0.040
586.00,0.040
587.00,0.040
588.00,0.040
589.00,0.040
590.00,0.040
591.00,0.040
592.00,0.040
593.00,0.040
594.00,0.040
595.00,0.040
596.00,0.040
597.00,0.040
598.00,0.040
599.00,0.040
600.00,0.040
601.00,0.040
602.00,0.040
603.00,0.040
604.00,0.040
605.00,0.040
606.00,0.040
607.00,0.040
608.00,0.040
609.00,0.040
610.00,0.040
611.00,0.040
612.00,0.040
613.00,0.040
614.00,0.040
615.00,0.040
616.00,0.040
617.00,0.040
618.00,0.040
619.00,0.040
620.00,0.040
621.00,0.040
622.00,0.040
623.00,0.040
624.00,0.040
625.00,0.040
626.00,0.040
627.00,0.040
628.00,0.040
629.00,0.039
630.00,0.039
631.00,0.040
632.00,0.040
633.00,0.040
634.00,0.039
635.00,0.039
636.00,0.039
637.00,0.039
638.00,0.039
639.00,0.039
640.00,0.039
641.00,0.039
642.00,0.039
643.00,0.039
644.00,0.039
645.00,0.039
646.00,0.039
647.00,0.039
648.00,0.039
649.00,0.039
650.00,0.039
651.00,0.039
652.00,0.039
653.00,0.039
654.00,0.039
655.00,0.039
656.00,0.039
657.00,0.039
658.00,0.039
659.00,0.039
660.00,0.039
661.00,0.039
662.00,0.039
663.00,0.039
664.00,0.039
665.00,0.039
666.00,0.039
667.00,0.039
668.00,0.039
669.00,0.039
670.00,0.039
671.00,0.039
672.00,0.039
673.00,0.039
674.00,0.039
675.00,0.039
676.00,0.039
677.00,0.039
678.00,0.039
679.00,0.039
680.00,0.039
681.00,0.039
682.00,0.039
683.00,0.039
684.00,0.039
685.00,0.039
686.00,0.039
687.00,0.039
688.00,0.039
689.00,0.039
690.00,0.039
691.00,0.039
692.00,0.039
693.00,0.039
694.00,0.039
695.00,0.039
696.00,0.039
697.00,0.039
698.00,0.039
699.00,0.039
700.00,0.039
701.00,0.039
702.00,0.039
703.00,0.040
704.00,0.040
705.00,0.040
706.00,0.040
707.00,0.040
708.00,0.040
709.00,0.040
710.00,0.040
711.00,0.040
712.00,0.040
713.00,0.040
714.00,0.041
715.00,0.041
716.00,0.041
717.00,0.041
718.00,0.041
719.00,0.042
720.00,0.042
721.00,0.042
722.00,0.042
723.00,0.042
724.00,0.043
725.00,0.043
726.00,0.043
727.00,0.044
728.00,0.044
729.00,0.044
730.00,0.045
731.00,0.045
732.00,0.046
733.00,0.046
734.00,0.047
735.00,0.047
736.00,0.047
737.00,0.048
738.00,0.048
739.00,0.048
740.00,0.048
741.00,0.048
742.00,0.048
743.00,0.048
744.00,0.048
745.00,0.048
746.00,0.048
747.00,0.048
748.00,0.048
749.00,0.048
750.00,0.048
751.00,0.048
752.00,0.048
753.00,0.048
754.00,0.048
755.00,0.048
756.00,0.048
757.00,0.048
758.00,0.048
759.00,0.048
760.00,0.048
761.00,0.048
762.00,0.048
763.00,0.048
764.00,0.048
765.00,0.048
766.00,0.048
767.00,0.048
768.00,0.048
769.00,0.048
770.00,0.048
771.00,0.048
772.00,0.047
773.00,0.047
774.00,0.047
775.00,0.047
776.00,0.047
777.00,0.047
778.00,0.047
779.00,0.047
780.00,0.047
781.00,0.047
782.00,0.047
783.00,0.047
784.00,0.046
785.00,0.046
786.00,0.046
787.00,0.046
788.00,0.046
789.00,0.046
790.00,0.046
791.00,0.046
792.00,0.046
793.00,0.046
794.00,0.045
795.00,0.045
796.00,0.045
797.00,0.045
798.00,0.045
799.00,0.045
800.00,0.045
801.00,0.045
802.00,0.045
803.00,0.045
804.00,0.045
805.00,0.045
806.00,0.045
807.00,0.045
808.00,0.045
809.00,0.045
810.00,0.045
811.00,0.045
812.00,0.045
813.00,0.045
814.00,0.045
815.00,0.045
816.00,0.045
817.00,0.045
818.00,0.045
819.00,0.045
820.00,0.045
821.00,0.046
822.00,0.046
823.00,0.046
824.00,0.046
825.00,0.047
826.00,0.047
827.00,0.048
828.00,0.048
829.00,0.049
830.00,0.049
831.00,0.050
832.00,0.050
833.00,0.051
834.00,0.051
835.00,0.051
836.00,0.051
837.00,0.052
838.00,0.052
839.00,0.052
840.00,0.052
841.00,0.052
842.00,0.052
843.00,0.052
844.00,0.052
845.00,0.053
846.00,0.053
847.00,0.053
848.00,0.053
849.00,0.053
850.00,0.053
851.00,0.053
852.00,0.053
853.00,0.053
854.00,0.054
855.00,0.054
856.00,0.054
857.00,0.054
858.00,0.054
859.00,0.054
860.00,0.054
861.00,0.054
862.00,0.054
863.00,0.054
864.00,0.055
865.00,0.055
866.00,0.055
867.00,0.055
868.00,0.055
869.00,0.055
870.00,0.055
871.00,0.055
872.00,0.056
873.00,0.056
874.00,0.056
875.00,0.056
876.00,0.056
877.00,0.057
878.00,0.057
879.00,0.057
880.00,0.057
881.00,0.058
882.00,0.058
883.00,0.058
884.00,0.058
885.00,0.059
886.00,0.059
887.00,0.059
888.00,0.059
889.00,0.059
890.00,0.060
891.00,0.060
892.00,0.060
893.00,0.060
894.00,0.061
895.00,0.061
896.00,0.061
897.00,0.061
898.00,0.062
899.00,0.062
900.00,0.062
