"AbriDeLaTempeteEcume_50x - RawData"
"Wavelength nm.","Abs."
190.00,3.023
191.00,3.030
192.00,3.018
193.00,3.253
194.00,3.375
195.00,3.282
196.00,3.350
197.00,3.341
198.00,3.420
199.00,3.293
200.00,3.343
201.00,3.448
202.00,3.577
203.00,3.274
204.00,3.104
205.00,3.015
206.00,2.913
207.00,2.801
208.00,2.660
209.00,2.543
210.00,2.433
211.00,2.315
212.00,2.214
213.00,2.108
214.00,2.007
215.00,1.915
216.00,1.825
217.00,1.738
218.00,1.651
219.00,1.566
220.00,1.486
221.00,1.412
222.00,1.342
223.00,1.275
224.00,1.207
225.00,1.144
226.00,1.081
227.00,1.018
228.00,0.957
229.00,0.903
230.00,0.852
231.00,0.806
232.00,0.765
233.00,0.729
234.00,0.698
235.00,0.670
236.00,0.646
237.00,0.627
238.00,0.610
239.00,0.597
240.00,0.587
241.00,0.578
242.00,0.573
243.00,0.569
244.00,0.567
245.00,0.566
246.00,0.566
247.00,0.567
248.00,0.569
249.00,0.571
250.00,0.574
251.00,0.577
252.00,0.581
253.00,0.585
254.00,0.589
255.00,0.592
256.00,0.596
257.00,0.598
258.00,0.600
259.00,0.600
260.00,0.600
261.00,0.601
262.00,0.601
263.00,0.601
264.00,0.601
265.00,0.601
266.00,0.600
267.00,0.599
268.00,0.596
269.00,0.593
270.00,0.589
271.00,0.584
272.00,0.579
273.00,0.573
274.00,0.566
275.00,0.557
276.00,0.549
277.00,0.540
278.00,0.529
279.00,0.518
280.00,0.507
281.00,0.495
282.00,0.483
283.00,0.469
284.00,0.455
285.00,0.441
286.00,0.427
287.00,0.413
288.00,0.398
289.00,0.384
290.00,0.368
291.00,0.353
292.00,0.340
293.00,0.329
294.00,0.319
295.00,0.310
296.00,0.303
297.00,0.296
298.00,0.290
299.00,0.284
300.00,0.279
301.00,0.274
302.00,0.270
303.00,0.266
304.00,0.263
305.00,0.260
306.00,0.257
307.00,0.254
308.00,0.251
309.00,0.249
310.00,0.246
311.00,0.244
312.00,0.242
313.00,0.240
314.00,0.238
315.00,0.236
316.00,0.234
317.00,0.231
318.00,0.229
319.00,0.227
320.00,0.224
321.00,0.221
322.00,0.218
323.00,0.215
324.00,0.212
325.00,0.209
326.00,0.205
327.00,0.202
328.00,0.198
329.00,0.195
330.00,0.191
331.00,0.187
332.00,0.183
333.00,0.179
334.00,0.174
335.00,0.171
336.00,0.167
337.00,0.163
338.00,0.159
339.00,0.155
340.00,0.152
341.00,0.147
342.00,0.143
343.00,0.139
344.00,0.135
345.00,0.132
346.00,0.128
347.00,0.125
348.00,0.122
349.00,0.119
350.00,0.116
351.00,0.112
352.00,0.110
353.00,0.107
354.00,0.105
355.00,0.102
356.00,0.100
357.00,0.097
358.00,0.095
359.00,0.093
360.00,0.091
361.00,0.089
362.00,0.088
363.00,0.086
364.00,0.084
365.00,0.083
366.00,0.082
367.00,0.080
368.00,0.079
369.00,0.077
370.00,0.076
371.00,0.075
372.00,0.074
373.00,0.073
374.00,0.072
375.00,0.071
376.00,0.070
377.00,0.069
378.00,0.068
379.00,0.067
380.00,0.066
381.00,0.065
382.00,0.064
383.00,0.064
384.00,0.063
385.00,0.062
386.00,0.062
387.00,0.061
388.00,0.060
389.00,0.060
390.00,0.059
391.00,0.059
392.00,0.058
393.00,0.058
394.00,0.057
395.00,0.057
396.00,0.056
397.00,0.056
398.00,0.056
399.00,0.055
400.00,0.055
401.00,0.055
402.00,0.054
403.00,0.054
404.00,0.054
405.00,0.054
406.00,0.053
407.00,0.053
408.00,0.053
409.00,0.052
410.00,0.052
411.00,0.052
412.00,0.052
413.00,0.051
414.00,0.051
415.00,0.051
416.00,0.051
417.00,0.051
418.00,0.051
419.00,0.050
420.00,0.050
421.00,0.050
422.00,0.050
423.00,0.050
424.00,0.049
425.00,0.049
426.00,0.049
427.00,0.049
428.00,0.049
429.00,0.049
430.00,0.048
431.00,0.048
432.00,0.048
433.00,0.048
434.00,0.048
435.00,0.048
436.00,0.048
437.00,0.047
438.00,0.047
439.00,0.047
440.00,0.047
441.00,0.047
442.00,0.047
443.00,0.047
444.00,0.047
445.00,0.047
446.00,0.047
447.00,0.046
448.00,0.046
449.00,0.046
450.00,0.046
451.00,0.046
452.00,0.046
453.00,0.046
454.00,0.046
455.00,0.046
456.00,0.046
457.00,0.045
458.00,0.045
459.00,0.045
460.00,0.045
461.00,0.045
462.00,0.045
463.00,0.045
464.00,0.045
465.00,0.045
466.00,0.045
467.00,0.045
468.00,0.044
469.00,0.044
470.00,0.044
471.00,0.044
472.00,0.044
473.00,0.044
474.00,0.044
475.00,0.044
476.00,0.044
477.00,0.044
478.00,0.044
479.00,0.044
480.00,0.044
481.00,0.043
482.00,0.043
483.00,0.043
484.00,0.043
485.00,0.043
486.00,0.043
487.00,0.043
488.00,0.043
489.00,0.043
490.00,0.043
491.00,0.043
492.00,0.043
493.00,0.043
494.00,0.043
495.00,0.042
496.00,0.042
497.00,0.042
498.00,0.042
499.00,0.042
500.00,0.042
501.00,0.042
502.00,0.042
503.00,0.042
504.00,0.042
505.00,0.042
506.00,0.042
507.00,0.042
508.00,0.042
509.00,0.042
510.00,0.042
511.00,0.042
512.00,0.042
513.00,0.042
514.00,0.042
515.00,0.041
516.00,0.041
517.00,0.041
518.00,0.041
519.00,0.041
520.00,0.041
521.00,0.041
522.00,0.041
523.00,0.041
524.00,0.041
525.00,0.041
526.00,0.041
527.00,0.041
528.00,0.041
529.00,0.041
530.00,0.041
531.00,0.041
532.00,0.041
533.00,0.041
534.00,0.040
535.00,0.040
536.00,0.041
537.00,0.041
538.00,0.040
539.00,0.040
540.00,0.040
541.00,0.040
542.00,0.040
543.00,0.040
544.00,0.040
545.00,0.040
546.00,0.040
547.00,0.040
548.00,0.040
549.00,0.040
550.00,0.040
551.00,0.040
552.00,0.040
553.00,0.040
554.00,0.040
555.00,0.040
556.00,0.040
557.00,0.040
558.00,0.040
559.00,0.040
560.00,0.040
561.00,0.040
562.00,0.040
563.00,0.040
564.00,0.040
565.00,0.040
566.00,0.040
567.00,0.040
568.00,0.040
569.00,0.039
570.00,0.039
571.00,0.039
572.00,0.039
573.00,0.039
574.00,0.039
575.00,0.039
576.00,0.039
577.00,0.039
578.00,0.039
579.00,0.039
580.00,0.039
581.00,0.039
582.00,0.039
583.00,0.039
584.00,0.039
585.00,0.039
586.00,0.039
587.00,0.039
588.00,0.039
589.00,0.039
590.00,0.039
591.00,0.039
592.00,0.039
593.00,0.039
594.00,0.039
595.00,0.039
596.00,0.039
597.00,0.039
598.00,0.039
599.00,0.039
600.00,0.039
601.00,0.039
602.00,0.039
603.00,0.039
604.00,0.039
605.00,0.039
606.00,0.039
607.00,0.039
608.00,0.039
609.00,0.039
610.00,0.039
611.00,0.039
612.00,0.039
613.00,0.039
614.00,0.039
615.00,0.039
616.00,0.039
617.00,0.039
618.00,0.039
619.00,0.039
620.00,0.039
621.00,0.039
622.00,0.039
623.00,0.039
624.00,0.039
625.00,0.039
626.00,0.039
627.00,0.039
628.00,0.039
629.00,0.039
630.00,0.039
631.00,0.039
632.00,0.039
633.00,0.039
634.00,0.039
635.00,0.039
636.00,0.039
637.00,0.039
638.00,0.039
639.00,0.039
640.00,0.039
641.00,0.039
642.00,0.039
643.00,0.039
644.00,0.039
645.00,0.039
646.00,0.039
647.00,0.039
648.00,0.039
649.00,0.039
650.00,0.039
651.00,0.039
652.00,0.039
653.00,0.039
654.00,0.039
655.00,0.039
656.00,0.039
657.00,0.039
658.00,0.039
659.00,0.039
660.00,0.039
661.00,0.039
662.00,0.039
663.00,0.039
664.00,0.039
665.00,0.039
666.00,0.039
667.00,0.039
668.00,0.039
669.00,0.039
670.00,0.039
671.00,0.039
672.00,0.039
673.00,0.039
674.00,0.039
675.00,0.039
676.00,0.039
677.00,0.039
678.00,0.039
679.00,0.039
680.00,0.039
681.00,0.039
682.00,0.039
683.00,0.039
684.00,0.039
685.00,0.039
686.00,0.039
687.00,0.039
688.00,0.039
689.00,0.039
690.00,0.039
691.00,0.039
692.00,0.039
693.00,0.039
694.00,0.039
695.00,0.039
696.00,0.039
697.00,0.039
698.00,0.039
699.00,0.039
700.00,0.039
701.00,0.039
702.00,0.039
703.00,0.039
704.00,0.039
705.00,0.039
706.00,0.040
707.00,0.040
708.00,0.040
709.00,0.040
710.00,0.040
711.00,0.040
712.00,0.040
713.00,0.040
714.00,0.040
715.00,0.041
716.00,0.041
717.00,0.041
718.00,0.041
719.00,0.041
720.00,0.042
721.00,0.042
722.00,0.042
723.00,0.042
724.00,0.043
725.00,0.043
726.00,0.043
727.00,0.043
728.00,0.044
729.00,0.044
730.00,0.045
731.00,0.045
732.00,0.046
733.00,0.046
734.00,0.047
735.00,0.047
736.00,0.047
737.00,0.048
738.00,0.048
739.00,0.048
740.00,0.048
741.00,0.048
742.00,0.048
743.00,0.048
744.00,0.048
745.00,0.048
746.00,0.048
747.00,0.048
748.00,0.048
749.00,0.048
750.00,0.048
751.00,0.048
752.00,0.048
753.00,0.048
754.00,0.048
755.00,0.048
756.00,0.048
757.00,0.048
758.00,0.048
759.00,0.048
760.00,0.048
761.00,0.048
762.00,0.048
763.00,0.048
764.00,0.048
765.00,0.048
766.00,0.048
767.00,0.048
768.00,0.048
769.00,0.048
770.00,0.048
771.00,0.048
772.00,0.047
773.00,0.047
774.00,0.047
775.00,0.047
776.00,0.047
777.00,0.047
778.00,0.047
779.00,0.047
780.00,0.047
781.00,0.047
782.00,0.047
783.00,0.047
784.00,0.047
785.00,0.047
786.00,0.046
787.00,0.046
788.00,0.046
789.00,0.046
790.00,0.046
791.00,0.046
792.00,0.046
793.00,0.046
794.00,0.046
795.00,0.045
796.00,0.045
797.00,0.045
798.00,0.045
799.00,0.045
800.00,0.045
801.00,0.045
802.00,0.045
803.00,0.045
804.00,0.045
805.00,0.045
806.00,0.045
807.00,0.045
808.00,0.045
809.00,0.045
810.00,0.045
811.00,0.045
812.00,0.045
813.00,0.045
814.00,0.045
815.00,0.045
816.00,0.045
817.00,0.045
818.00,0.045
819.00,0.045
820.00,0.045
821.00,0.045
822.00,0.046
823.00,0.046
824.00,0.046
825.00,0.047
826.00,0.047
827.00,0.048
828.00,0.048
829.00,0.049
830.00,0.049
831.00,0.050
832.00,0.050
833.00,0.051
834.00,0.051
835.00,0.051
836.00,0.051
837.00,0.052
838.00,0.052
839.00,0.052
840.00,0.052
841.00,0.052
842.00,0.052
843.00,0.052
844.00,0.052
845.00,0.053
846.00,0.053
847.00,0.053
848.00,0.053
849.00,0.053
850.00,0.053
851.00,0.053
852.00,0.053
853.00,0.054
854.00,0.054
855.00,0.054
856.00,0.054
857.00,0.054
858.00,0.054
859.00,0.054
860.00,0.054
861.00,0.054
862.00,0.054
863.00,0.055
864.00,0.055
865.00,0.055
866.00,0.055
867.00,0.055
868.00,0.055
869.00,0.055
870.00,0.055
871.00,0.056
872.00,0.056
873.00,0.056
874.00,0.056
875.00,0.056
876.00,0.057
877.00,0.057
878.00,0.057
879.00,0.057
880.00,0.057
881.00,0.058
882.00,0.058
883.00,0.058
884.00,0.059
885.00,0.059
886.00,0.059
887.00,0.059
888.00,0.059
889.00,0.060
890.00,0.060
891.00,0.060
892.00,0.060
893.00,0.060
894.00,0.061
895.00,0.061
896.00,0.061
897.00,0.062
898.00,0.062
899.00,0.062
900.00,0.062
