"AvantGardePerduDansMalle50x - RawData"
"Wavelength nm.","Abs."
190.00,2.763
191.00,3.025
192.00,3.161
193.00,3.079
194.00,3.175
195.00,3.320
196.00,3.320
197.00,3.434
198.00,3.361
199.00,3.537
200.00,3.554
201.00,3.663
202.00,3.521
203.00,3.547
204.00,3.488
205.00,3.542
206.00,3.465
207.00,3.619
208.00,3.511
209.00,3.573
210.00,3.565
211.00,3.497
212.00,3.427
213.00,3.435
214.00,3.309
215.00,3.193
216.00,3.073
217.00,2.966
218.00,2.835
219.00,2.713
220.00,2.576
221.00,2.448
222.00,2.329
223.00,2.207
224.00,2.085
225.00,1.969
226.00,1.851
227.00,1.731
228.00,1.614
229.00,1.509
230.00,1.410
231.00,1.319
232.00,1.238
233.00,1.167
234.00,1.106
235.00,1.055
236.00,1.013
237.00,0.978
238.00,0.949
239.00,0.927
240.00,0.909
241.00,0.896
242.00,0.888
243.00,0.883
244.00,0.880
245.00,0.880
246.00,0.881
247.00,0.884
248.00,0.888
249.00,0.892
250.00,0.897
251.00,0.904
252.00,0.910
253.00,0.917
254.00,0.923
255.00,0.930
256.00,0.936
257.00,0.941
258.00,0.945
259.00,0.946
260.00,0.948
261.00,0.950
262.00,0.951
263.00,0.953
264.00,0.955
265.00,0.955
266.00,0.955
267.00,0.955
268.00,0.954
269.00,0.950
270.00,0.945
271.00,0.938
272.00,0.930
273.00,0.920
274.00,0.909
275.00,0.897
276.00,0.883
277.00,0.869
278.00,0.852
279.00,0.834
280.00,0.817
281.00,0.798
282.00,0.777
283.00,0.753
284.00,0.729
285.00,0.702
286.00,0.677
287.00,0.654
288.00,0.629
289.00,0.605
290.00,0.578
291.00,0.552
292.00,0.529
293.00,0.509
294.00,0.492
295.00,0.477
296.00,0.463
297.00,0.451
298.00,0.440
299.00,0.430
300.00,0.421
301.00,0.413
302.00,0.406
303.00,0.400
304.00,0.395
305.00,0.389
306.00,0.384
307.00,0.380
308.00,0.375
309.00,0.372
310.00,0.368
311.00,0.365
312.00,0.362
313.00,0.359
314.00,0.355
315.00,0.353
316.00,0.350
317.00,0.347
318.00,0.344
319.00,0.341
320.00,0.337
321.00,0.334
322.00,0.330
323.00,0.326
324.00,0.322
325.00,0.318
326.00,0.313
327.00,0.309
328.00,0.304
329.00,0.299
330.00,0.294
331.00,0.289
332.00,0.284
333.00,0.279
334.00,0.273
335.00,0.267
336.00,0.263
337.00,0.257
338.00,0.252
339.00,0.247
340.00,0.241
341.00,0.234
342.00,0.229
343.00,0.223
344.00,0.218
345.00,0.213
346.00,0.209
347.00,0.204
348.00,0.199
349.00,0.194
350.00,0.190
351.00,0.186
352.00,0.181
353.00,0.177
354.00,0.174
355.00,0.170
356.00,0.167
357.00,0.163
358.00,0.160
359.00,0.157
360.00,0.153
361.00,0.151
362.00,0.148
363.00,0.146
364.00,0.143
365.00,0.141
366.00,0.138
367.00,0.136
368.00,0.134
369.00,0.132
370.00,0.130
371.00,0.128
372.00,0.126
373.00,0.124
374.00,0.123
375.00,0.121
376.00,0.119
377.00,0.118
378.00,0.116
379.00,0.115
380.00,0.113
381.00,0.112
382.00,0.111
383.00,0.110
384.00,0.108
385.00,0.107
386.00,0.106
387.00,0.105
388.00,0.104
389.00,0.103
390.00,0.102
391.00,0.101
392.00,0.100
393.00,0.099
394.00,0.099
395.00,0.098
396.00,0.097
397.00,0.097
398.00,0.096
399.00,0.095
400.00,0.095
401.00,0.094
402.00,0.093
403.00,0.093
404.00,0.092
405.00,0.092
406.00,0.091
407.00,0.091
408.00,0.091
409.00,0.090
410.00,0.090
411.00,0.089
412.00,0.089
413.00,0.089
414.00,0.088
415.00,0.088
416.00,0.088
417.00,0.088
418.00,0.087
419.00,0.087
420.00,0.087
421.00,0.087
422.00,0.087
423.00,0.086
424.00,0.086
425.00,0.086
426.00,0.086
427.00,0.085
428.00,0.085
429.00,0.085
430.00,0.085
431.00,0.084
432.00,0.084
433.00,0.084
434.00,0.084
435.00,0.084
436.00,0.083
437.00,0.083
438.00,0.083
439.00,0.083
440.00,0.083
441.00,0.083
442.00,0.082
443.00,0.082
444.00,0.082
445.00,0.082
446.00,0.082
447.00,0.082
448.00,0.082
449.00,0.082
450.00,0.081
451.00,0.081
452.00,0.081
453.00,0.081
454.00,0.081
455.00,0.081
456.00,0.081
457.00,0.080
458.00,0.080
459.00,0.080
460.00,0.080
461.00,0.080
462.00,0.080
463.00,0.080
464.00,0.080
465.00,0.079
466.00,0.079
467.00,0.079
468.00,0.079
469.00,0.079
470.00,0.079
471.00,0.079
472.00,0.079
473.00,0.079
474.00,0.079
475.00,0.079
476.00,0.078
477.00,0.078
478.00,0.078
479.00,0.078
480.00,0.078
481.00,0.078
482.00,0.078
483.00,0.078
484.00,0.078
485.00,0.077
486.00,0.077
487.00,0.077
488.00,0.077
489.00,0.077
490.00,0.077
491.00,0.077
492.00,0.077
493.00,0.077
494.00,0.077
495.00,0.077
496.00,0.076
497.00,0.076
498.00,0.076
499.00,0.076
500.00,0.076
501.00,0.076
502.00,0.076
503.00,0.076
504.00,0.076
505.00,0.076
506.00,0.076
507.00,0.076
508.00,0.076
509.00,0.076
510.00,0.075
511.00,0.075
512.00,0.075
513.00,0.075
514.00,0.075
515.00,0.075
516.00,0.075
517.00,0.075
518.00,0.075
519.00,0.075
520.00,0.075
521.00,0.075
522.00,0.075
523.00,0.075
524.00,0.074
525.00,0.074
526.00,0.074
527.00,0.074
528.00,0.074
529.00,0.074
530.00,0.074
531.00,0.074
532.00,0.074
533.00,0.074
534.00,0.074
535.00,0.074
536.00,0.074
537.00,0.074
538.00,0.073
539.00,0.073
540.00,0.073
541.00,0.073
542.00,0.073
543.00,0.073
544.00,0.073
545.00,0.073
546.00,0.073
547.00,0.073
548.00,0.073
549.00,0.073
550.00,0.073
551.00,0.073
552.00,0.073
553.00,0.073
554.00,0.073
555.00,0.073
556.00,0.073
557.00,0.073
558.00,0.073
559.00,0.072
560.00,0.072
561.00,0.072
562.00,0.072
563.00,0.072
564.00,0.072
565.00,0.072
566.00,0.072
567.00,0.072
568.00,0.072
569.00,0.072
570.00,0.072
571.00,0.072
572.00,0.072
573.00,0.072
574.00,0.072
575.00,0.072
576.00,0.072
577.00,0.072
578.00,0.072
579.00,0.072
580.00,0.072
581.00,0.071
582.00,0.071
583.00,0.071
584.00,0.071
585.00,0.071
586.00,0.071
587.00,0.071
588.00,0.071
589.00,0.071
590.00,0.071
591.00,0.071
592.00,0.071
593.00,0.071
594.00,0.071
595.00,0.071
596.00,0.071
597.00,0.071
598.00,0.071
599.00,0.071
600.00,0.071
601.00,0.071
602.00,0.071
603.00,0.071
604.00,0.071
605.00,0.071
606.00,0.071
607.00,0.071
608.00,0.071
609.00,0.071
610.00,0.071
611.00,0.071
612.00,0.071
613.00,0.071
614.00,0.071
615.00,0.071
616.00,0.071
617.00,0.071
618.00,0.071
619.00,0.071
620.00,0.071
621.00,0.071
622.00,0.071
623.00,0.071
624.00,0.071
625.00,0.071
626.00,0.071
627.00,0.071
628.00,0.071
629.00,0.071
630.00,0.070
631.00,0.070
632.00,0.071
633.00,0.070
634.00,0.070
635.00,0.070
636.00,0.070
637.00,0.070
638.00,0.070
639.00,0.070
640.00,0.070
641.00,0.070
642.00,0.070
643.00,0.070
644.00,0.070
645.00,0.070
646.00,0.070
647.00,0.070
648.00,0.070
649.00,0.070
650.00,0.070
651.00,0.070
652.00,0.070
653.00,0.070
654.00,0.070
655.00,0.070
656.00,0.070
657.00,0.070
658.00,0.070
659.00,0.070
660.00,0.070
661.00,0.070
662.00,0.070
663.00,0.070
664.00,0.070
665.00,0.070
666.00,0.070
667.00,0.070
668.00,0.070
669.00,0.070
670.00,0.070
671.00,0.070
672.00,0.070
673.00,0.070
674.00,0.070
675.00,0.070
676.00,0.070
677.00,0.070
678.00,0.070
679.00,0.070
680.00,0.070
681.00,0.070
682.00,0.070
683.00,0.069
684.00,0.069
685.00,0.070
686.00,0.070
687.00,0.070
688.00,0.070
689.00,0.070
690.00,0.070
691.00,0.070
692.00,0.070
693.00,0.070
694.00,0.070
695.00,0.069
696.00,0.070
697.00,0.070
698.00,0.070
699.00,0.070
700.00,0.070
701.00,0.070
702.00,0.070
703.00,0.070
704.00,0.070
705.00,0.070
706.00,0.070
707.00,0.070
708.00,0.070
709.00,0.070
710.00,0.070
711.00,0.070
712.00,0.071
713.00,0.071
714.00,0.071
715.00,0.071
716.00,0.071
717.00,0.071
718.00,0.071
719.00,0.072
720.00,0.072
721.00,0.072
722.00,0.072
723.00,0.072
724.00,0.073
725.00,0.073
726.00,0.073
727.00,0.074
728.00,0.074
729.00,0.074
730.00,0.075
731.00,0.075
732.00,0.076
733.00,0.076
734.00,0.077
735.00,0.077
736.00,0.077
737.00,0.078
738.00,0.078
739.00,0.078
740.00,0.078
741.00,0.078
742.00,0.078
743.00,0.078
744.00,0.078
745.00,0.078
746.00,0.078
747.00,0.078
748.00,0.078
749.00,0.078
750.00,0.078
751.00,0.078
752.00,0.078
753.00,0.078
754.00,0.078
755.00,0.078
756.00,0.078
757.00,0.078
758.00,0.078
759.00,0.078
760.00,0.078
761.00,0.078
762.00,0.077
763.00,0.077
764.00,0.077
765.00,0.077
766.00,0.077
767.00,0.077
768.00,0.077
769.00,0.077
770.00,0.077
771.00,0.077
772.00,0.077
773.00,0.077
774.00,0.077
775.00,0.077
776.00,0.077
777.00,0.076
778.00,0.076
779.00,0.076
780.00,0.076
781.00,0.076
782.00,0.076
783.00,0.076
784.00,0.076
785.00,0.076
786.00,0.076
787.00,0.075
788.00,0.075
789.00,0.075
790.00,0.075
791.00,0.075
792.00,0.075
793.00,0.075
794.00,0.075
795.00,0.075
796.00,0.074
797.00,0.074
798.00,0.074
799.00,0.074
800.00,0.074
801.00,0.074
802.00,0.074
803.00,0.074
804.00,0.074
805.00,0.074
806.00,0.074
807.00,0.074
808.00,0.073
809.00,0.073
810.00,0.074
811.00,0.074
812.00,0.074
813.00,0.074
814.00,0.074
815.00,0.074
816.00,0.074
817.00,0.074
818.00,0.074
819.00,0.074
820.00,0.074
821.00,0.074
822.00,0.075
823.00,0.075
824.00,0.075
825.00,0.075
826.00,0.076
827.00,0.076
828.00,0.077
829.00,0.077
830.00,0.078
831.00,0.078
832.00,0.079
833.00,0.079
834.00,0.080
835.00,0.080
836.00,0.080
837.00,0.080
838.00,0.081
839.00,0.081
840.00,0.081
841.00,0.081
842.00,0.081
843.00,0.081
844.00,0.081
845.00,0.081
846.00,0.081
847.00,0.081
848.00,0.082
849.00,0.082
850.00,0.082
851.00,0.082
852.00,0.082
853.00,0.082
854.00,0.082
855.00,0.082
856.00,0.082
857.00,0.082
858.00,0.082
859.00,0.083
860.00,0.083
861.00,0.083
862.00,0.083
863.00,0.083
864.00,0.083
865.00,0.083
866.00,0.083
867.00,0.083
868.00,0.083
869.00,0.084
870.00,0.084
871.00,0.084
872.00,0.084
873.00,0.084
874.00,0.084
875.00,0.084
876.00,0.085
877.00,0.085
878.00,0.085
879.00,0.085
880.00,0.085
881.00,0.086
882.00,0.086
883.00,0.086
884.00,0.086
885.00,0.087
886.00,0.087
887.00,0.087
888.00,0.087
889.00,0.087
890.00,0.088
891.00,0.088
892.00,0.088
893.00,0.088
894.00,0.089
895.00,0.089
896.00,0.089
897.00,0.089
898.00,0.089
899.00,0.090
900.00,0.090
