"BarberieCuivreeAuThe_50x - RawData"
"Wavelength nm.","Abs."
190.00,2.835
191.00,3.317
192.00,3.397
193.00,3.522
194.00,3.578
195.00,3.459
196.00,3.869
197.00,3.634
198.00,3.594
199.00,3.415
200.00,3.680
201.00,3.782
202.00,3.606
203.00,3.706
204.00,3.553
205.00,3.577
206.00,3.560
207.00,3.310
208.00,3.364
209.00,3.182
210.00,3.056
211.00,2.970
212.00,2.842
213.00,2.720
214.00,2.613
215.00,2.498
216.00,2.381
217.00,2.264
218.00,2.155
219.00,2.047
220.00,1.948
221.00,1.851
222.00,1.763
223.00,1.679
224.00,1.593
225.00,1.512
226.00,1.434
227.00,1.355
228.00,1.278
229.00,1.210
230.00,1.145
231.00,1.085
232.00,1.031
233.00,0.982
234.00,0.940
235.00,0.904
236.00,0.872
237.00,0.846
238.00,0.824
239.00,0.806
240.00,0.792
241.00,0.780
242.00,0.773
243.00,0.768
244.00,0.766
245.00,0.766
246.00,0.767
247.00,0.770
248.00,0.774
249.00,0.779
250.00,0.784
251.00,0.791
252.00,0.798
253.00,0.805
254.00,0.812
255.00,0.820
256.00,0.828
257.00,0.834
258.00,0.838
259.00,0.842
260.00,0.845
261.00,0.849
262.00,0.852
263.00,0.855
264.00,0.857
265.00,0.858
266.00,0.859
267.00,0.858
268.00,0.856
269.00,0.853
270.00,0.848
271.00,0.842
272.00,0.834
273.00,0.826
274.00,0.816
275.00,0.804
276.00,0.792
277.00,0.779
278.00,0.764
279.00,0.748
280.00,0.732
281.00,0.715
282.00,0.697
283.00,0.678
284.00,0.659
285.00,0.638
286.00,0.619
287.00,0.600
288.00,0.580
289.00,0.560
290.00,0.539
291.00,0.519
292.00,0.501
293.00,0.485
294.00,0.471
295.00,0.458
296.00,0.447
297.00,0.438
298.00,0.428
299.00,0.420
300.00,0.411
301.00,0.404
302.00,0.397
303.00,0.391
304.00,0.385
305.00,0.379
306.00,0.374
307.00,0.368
308.00,0.363
309.00,0.358
310.00,0.353
311.00,0.348
312.00,0.344
313.00,0.339
314.00,0.335
315.00,0.331
316.00,0.326
317.00,0.322
318.00,0.318
319.00,0.313
320.00,0.309
321.00,0.304
322.00,0.300
323.00,0.295
324.00,0.290
325.00,0.285
326.00,0.281
327.00,0.276
328.00,0.271
329.00,0.266
330.00,0.260
331.00,0.255
332.00,0.250
333.00,0.245
334.00,0.240
335.00,0.235
336.00,0.231
337.00,0.226
338.00,0.221
339.00,0.216
340.00,0.212
341.00,0.206
342.00,0.201
343.00,0.197
344.00,0.193
345.00,0.188
346.00,0.184
347.00,0.180
348.00,0.176
349.00,0.172
350.00,0.169
351.00,0.165
352.00,0.161
353.00,0.158
354.00,0.155
355.00,0.152
356.00,0.148
357.00,0.145
358.00,0.142
359.00,0.139
360.00,0.136
361.00,0.133
362.00,0.131
363.00,0.129
364.00,0.126
365.00,0.124
366.00,0.122
367.00,0.120
368.00,0.118
369.00,0.115
370.00,0.113
371.00,0.111
372.00,0.110
373.00,0.108
374.00,0.106
375.00,0.104
376.00,0.103
377.00,0.101
378.00,0.099
379.00,0.098
380.00,0.096
381.00,0.095
382.00,0.093
383.00,0.092
384.00,0.091
385.00,0.090
386.00,0.089
387.00,0.087
388.00,0.086
389.00,0.085
390.00,0.084
391.00,0.083
392.00,0.082
393.00,0.081
394.00,0.080
395.00,0.079
396.00,0.079
397.00,0.078
398.00,0.077
399.00,0.076
400.00,0.076
401.00,0.075
402.00,0.074
403.00,0.074
404.00,0.073
405.00,0.072
406.00,0.072
407.00,0.071
408.00,0.071
409.00,0.070
410.00,0.070
411.00,0.069
412.00,0.069
413.00,0.068
414.00,0.068
415.00,0.067
416.00,0.067
417.00,0.067
418.00,0.066
419.00,0.066
420.00,0.065
421.00,0.065
422.00,0.065
423.00,0.064
424.00,0.064
425.00,0.064
426.00,0.063
427.00,0.063
428.00,0.063
429.00,0.062
430.00,0.062
431.00,0.062
432.00,0.061
433.00,0.061
434.00,0.061
435.00,0.061
436.00,0.060
437.00,0.060
438.00,0.060
439.00,0.060
440.00,0.059
441.00,0.059
442.00,0.059
443.00,0.058
444.00,0.058
445.00,0.058
446.00,0.058
447.00,0.058
448.00,0.057
449.00,0.057
450.00,0.057
451.00,0.057
452.00,0.057
453.00,0.056
454.00,0.056
455.00,0.056
456.00,0.056
457.00,0.056
458.00,0.055
459.00,0.055
460.00,0.055
461.00,0.055
462.00,0.055
463.00,0.054
464.00,0.054
465.00,0.054
466.00,0.054
467.00,0.054
468.00,0.054
469.00,0.053
470.00,0.053
471.00,0.053
472.00,0.053
473.00,0.053
474.00,0.053
475.00,0.052
476.00,0.052
477.00,0.052
478.00,0.052
479.00,0.052
480.00,0.052
481.00,0.051
482.00,0.051
483.00,0.051
484.00,0.051
485.00,0.051
486.00,0.051
487.00,0.051
488.00,0.050
489.00,0.050
490.00,0.050
491.00,0.050
492.00,0.050
493.00,0.050
494.00,0.050
495.00,0.049
496.00,0.049
497.00,0.049
498.00,0.049
499.00,0.049
500.00,0.049
501.00,0.049
502.00,0.049
503.00,0.049
504.00,0.048
505.00,0.048
506.00,0.048
507.00,0.048
508.00,0.048
509.00,0.048
510.00,0.048
511.00,0.048
512.00,0.048
513.00,0.048
514.00,0.047
515.00,0.047
516.00,0.047
517.00,0.047
518.00,0.047
519.00,0.047
520.00,0.047
521.00,0.047
522.00,0.047
523.00,0.047
524.00,0.046
525.00,0.046
526.00,0.046
527.00,0.046
528.00,0.046
529.00,0.046
530.00,0.046
531.00,0.046
532.00,0.046
533.00,0.046
534.00,0.046
535.00,0.045
536.00,0.046
537.00,0.045
538.00,0.045
539.00,0.045
540.00,0.045
541.00,0.045
542.00,0.045
543.00,0.045
544.00,0.045
545.00,0.045
546.00,0.045
547.00,0.045
548.00,0.045
549.00,0.044
550.00,0.044
551.00,0.044
552.00,0.044
553.00,0.044
554.00,0.044
555.00,0.044
556.00,0.044
557.00,0.044
558.00,0.044
559.00,0.044
560.00,0.044
561.00,0.044
562.00,0.044
563.00,0.044
564.00,0.044
565.00,0.043
566.00,0.043
567.00,0.043
568.00,0.043
569.00,0.043
570.00,0.043
571.00,0.043
572.00,0.043
573.00,0.043
574.00,0.043
575.00,0.043
576.00,0.043
577.00,0.043
578.00,0.043
579.00,0.043
580.00,0.043
581.00,0.043
582.00,0.043
583.00,0.043
584.00,0.043
585.00,0.043
586.00,0.043
587.00,0.043
588.00,0.043
589.00,0.043
590.00,0.043
591.00,0.043
592.00,0.043
593.00,0.043
594.00,0.043
595.00,0.043
596.00,0.043
597.00,0.043
598.00,0.043
599.00,0.043
600.00,0.043
601.00,0.043
602.00,0.043
603.00,0.043
604.00,0.043
605.00,0.043
606.00,0.043
607.00,0.042
608.00,0.042
609.00,0.042
610.00,0.042
611.00,0.042
612.00,0.042
613.00,0.042
614.00,0.042
615.00,0.042
616.00,0.042
617.00,0.042
618.00,0.042
619.00,0.042
620.00,0.042
621.00,0.042
622.00,0.042
623.00,0.042
624.00,0.042
625.00,0.042
626.00,0.042
627.00,0.042
628.00,0.042
629.00,0.042
630.00,0.042
631.00,0.042
632.00,0.042
633.00,0.042
634.00,0.042
635.00,0.041
636.00,0.041
637.00,0.041
638.00,0.041
639.00,0.041
640.00,0.041
641.00,0.041
642.00,0.041
643.00,0.041
644.00,0.041
645.00,0.041
646.00,0.041
647.00,0.041
648.00,0.041
649.00,0.041
650.00,0.041
651.00,0.041
652.00,0.041
653.00,0.041
654.00,0.041
655.00,0.041
656.00,0.041
657.00,0.041
658.00,0.041
659.00,0.041
660.00,0.041
661.00,0.041
662.00,0.041
663.00,0.041
664.00,0.041
665.00,0.041
666.00,0.041
667.00,0.041
668.00,0.041
669.00,0.041
670.00,0.041
671.00,0.041
672.00,0.041
673.00,0.041
674.00,0.041
675.00,0.041
676.00,0.041
677.00,0.041
678.00,0.041
679.00,0.041
680.00,0.041
681.00,0.041
682.00,0.041
683.00,0.041
684.00,0.041
685.00,0.041
686.00,0.041
687.00,0.041
688.00,0.041
689.00,0.041
690.00,0.041
691.00,0.041
692.00,0.041
693.00,0.041
694.00,0.041
695.00,0.041
696.00,0.041
697.00,0.041
698.00,0.041
699.00,0.041
700.00,0.041
701.00,0.041
702.00,0.041
703.00,0.041
704.00,0.041
705.00,0.041
706.00,0.042
707.00,0.042
708.00,0.042
709.00,0.042
710.00,0.042
711.00,0.042
712.00,0.042
713.00,0.042
714.00,0.042
715.00,0.043
716.00,0.043
717.00,0.043
718.00,0.043
719.00,0.043
720.00,0.044
721.00,0.044
722.00,0.044
723.00,0.044
724.00,0.044
725.00,0.045
726.00,0.045
727.00,0.045
728.00,0.046
729.00,0.046
730.00,0.046
731.00,0.047
732.00,0.047
733.00,0.048
734.00,0.048
735.00,0.049
736.00,0.049
737.00,0.049
738.00,0.049
739.00,0.049
740.00,0.049
741.00,0.050
742.00,0.050
743.00,0.050
744.00,0.050
745.00,0.050
746.00,0.049
747.00,0.049
748.00,0.050
749.00,0.050
750.00,0.050
751.00,0.050
752.00,0.049
753.00,0.049
754.00,0.049
755.00,0.050
756.00,0.050
757.00,0.050
758.00,0.050
759.00,0.050
760.00,0.050
761.00,0.050
762.00,0.050
763.00,0.049
764.00,0.049
765.00,0.049
766.00,0.049
767.00,0.049
768.00,0.049
769.00,0.049
770.00,0.049
771.00,0.049
772.00,0.049
773.00,0.049
774.00,0.049
775.00,0.049
776.00,0.049
777.00,0.049
778.00,0.049
779.00,0.049
780.00,0.049
781.00,0.048
782.00,0.048
783.00,0.048
784.00,0.048
785.00,0.048
786.00,0.048
787.00,0.048
788.00,0.048
789.00,0.048
790.00,0.048
791.00,0.047
792.00,0.047
793.00,0.047
794.00,0.047
795.00,0.047
796.00,0.047
797.00,0.047
798.00,0.047
799.00,0.046
800.00,0.046
801.00,0.046
802.00,0.046
803.00,0.046
804.00,0.046
805.00,0.046
806.00,0.046
807.00,0.046
808.00,0.046
809.00,0.046
810.00,0.046
811.00,0.046
812.00,0.046
813.00,0.046
814.00,0.046
815.00,0.046
816.00,0.046
817.00,0.046
818.00,0.046
819.00,0.046
820.00,0.047
821.00,0.047
822.00,0.047
823.00,0.047
824.00,0.048
825.00,0.048
826.00,0.048
827.00,0.049
828.00,0.049
829.00,0.050
830.00,0.050
831.00,0.051
832.00,0.051
833.00,0.052
834.00,0.052
835.00,0.052
836.00,0.053
837.00,0.053
838.00,0.053
839.00,0.053
840.00,0.053
841.00,0.053
842.00,0.053
843.00,0.053
844.00,0.054
845.00,0.054
846.00,0.054
847.00,0.054
848.00,0.054
849.00,0.054
850.00,0.054
851.00,0.054
852.00,0.055
853.00,0.055
854.00,0.055
855.00,0.055
856.00,0.055
857.00,0.055
858.00,0.055
859.00,0.055
860.00,0.055
861.00,0.055
862.00,0.056
863.00,0.056
864.00,0.056
865.00,0.056
866.00,0.056
867.00,0.056
868.00,0.056
869.00,0.056
870.00,0.057
871.00,0.057
872.00,0.057
873.00,0.057
874.00,0.057
875.00,0.057
876.00,0.058
877.00,0.058
878.00,0.058
879.00,0.058
880.00,0.059
881.00,0.059
882.00,0.059
883.00,0.059
884.00,0.060
885.00,0.060
886.00,0.060
887.00,0.060
888.00,0.061
889.00,0.061
890.00,0.061
891.00,0.061
892.00,0.061
893.00,0.062
894.00,0.062
895.00,0.062
896.00,0.062
897.00,0.063
898.00,0.063
899.00,0.063
900.00,0.063
