"BDMBlancheCan355_50x - RawData"
"Wavelength nm.","Abs."
190.00,3.538
191.00,3.454
192.00,3.384
193.00,3.385
194.00,3.704
195.00,3.544
196.00,3.463
197.00,3.884
198.00,3.643
199.00,3.824
200.00,3.715
201.00,3.760
202.00,3.883
203.00,3.674
204.00,3.814
205.00,3.935
206.00,3.644
207.00,3.582
208.00,3.425
209.00,3.242
210.00,3.174
211.00,3.097
212.00,2.958
213.00,2.812
214.00,2.686
215.00,2.571
216.00,2.445
217.00,2.336
218.00,2.228
219.00,2.111
220.00,2.005
221.00,1.907
222.00,1.813
223.00,1.722
224.00,1.629
225.00,1.543
226.00,1.458
227.00,1.368
228.00,1.280
229.00,1.197
230.00,1.119
231.00,1.048
232.00,0.985
233.00,0.928
234.00,0.879
235.00,0.837
236.00,0.801
237.00,0.770
238.00,0.745
239.00,0.726
240.00,0.712
241.00,0.700
242.00,0.693
243.00,0.688
244.00,0.686
245.00,0.685
246.00,0.685
247.00,0.687
248.00,0.690
249.00,0.693
250.00,0.696
251.00,0.700
252.00,0.705
253.00,0.709
254.00,0.714
255.00,0.718
256.00,0.722
257.00,0.726
258.00,0.728
259.00,0.729
260.00,0.730
261.00,0.731
262.00,0.732
263.00,0.733
264.00,0.734
265.00,0.734
266.00,0.734
267.00,0.733
268.00,0.731
269.00,0.727
270.00,0.723
271.00,0.718
272.00,0.712
273.00,0.705
274.00,0.697
275.00,0.688
276.00,0.678
277.00,0.668
278.00,0.656
279.00,0.643
280.00,0.630
281.00,0.617
282.00,0.602
283.00,0.587
284.00,0.571
285.00,0.553
286.00,0.536
287.00,0.520
288.00,0.503
289.00,0.486
290.00,0.468
291.00,0.451
292.00,0.435
293.00,0.420
294.00,0.408
295.00,0.396
296.00,0.386
297.00,0.377
298.00,0.368
299.00,0.359
300.00,0.352
301.00,0.345
302.00,0.339
303.00,0.334
304.00,0.329
305.00,0.324
306.00,0.320
307.00,0.316
308.00,0.313
309.00,0.310
310.00,0.307
311.00,0.304
312.00,0.302
313.00,0.299
314.00,0.297
315.00,0.295
316.00,0.293
317.00,0.291
318.00,0.288
319.00,0.286
320.00,0.283
321.00,0.281
322.00,0.278
323.00,0.275
324.00,0.272
325.00,0.269
326.00,0.265
327.00,0.262
328.00,0.258
329.00,0.255
330.00,0.251
331.00,0.247
332.00,0.242
333.00,0.238
334.00,0.234
335.00,0.229
336.00,0.225
337.00,0.221
338.00,0.217
339.00,0.213
340.00,0.208
341.00,0.202
342.00,0.198
343.00,0.193
344.00,0.189
345.00,0.185
346.00,0.181
347.00,0.177
348.00,0.173
349.00,0.169
350.00,0.165
351.00,0.161
352.00,0.157
353.00,0.154
354.00,0.150
355.00,0.147
356.00,0.144
357.00,0.140
358.00,0.137
359.00,0.134
360.00,0.131
361.00,0.129
362.00,0.126
363.00,0.123
364.00,0.121
365.00,0.119
366.00,0.117
367.00,0.114
368.00,0.112
369.00,0.110
370.00,0.108
371.00,0.107
372.00,0.105
373.00,0.103
374.00,0.101
375.00,0.100
376.00,0.098
377.00,0.097
378.00,0.095
379.00,0.094
380.00,0.092
381.00,0.091
382.00,0.090
383.00,0.089
384.00,0.088
385.00,0.087
386.00,0.086
387.00,0.085
388.00,0.084
389.00,0.083
390.00,0.083
391.00,0.082
392.00,0.081
393.00,0.080
394.00,0.079
395.00,0.079
396.00,0.078
397.00,0.078
398.00,0.077
399.00,0.077
400.00,0.076
401.00,0.076
402.00,0.075
403.00,0.074
404.00,0.074
405.00,0.074
406.00,0.073
407.00,0.073
408.00,0.072
409.00,0.072
410.00,0.071
411.00,0.071
412.00,0.071
413.00,0.070
414.00,0.070
415.00,0.070
416.00,0.069
417.00,0.069
418.00,0.069
419.00,0.069
420.00,0.068
421.00,0.068
422.00,0.068
423.00,0.068
424.00,0.067
425.00,0.067
426.00,0.067
427.00,0.066
428.00,0.066
429.00,0.066
430.00,0.066
431.00,0.066
432.00,0.065
433.00,0.065
434.00,0.065
435.00,0.065
436.00,0.064
437.00,0.064
438.00,0.064
439.00,0.064
440.00,0.064
441.00,0.063
442.00,0.063
443.00,0.063
444.00,0.063
445.00,0.063
446.00,0.062
447.00,0.062
448.00,0.062
449.00,0.062
450.00,0.062
451.00,0.062
452.00,0.061
453.00,0.061
454.00,0.061
455.00,0.061
456.00,0.061
457.00,0.060
458.00,0.060
459.00,0.060
460.00,0.060
461.00,0.060
462.00,0.060
463.00,0.060
464.00,0.059
465.00,0.059
466.00,0.059
467.00,0.059
468.00,0.059
469.00,0.059
470.00,0.059
471.00,0.059
472.00,0.058
473.00,0.058
474.00,0.058
475.00,0.058
476.00,0.058
477.00,0.058
478.00,0.058
479.00,0.057
480.00,0.057
481.00,0.057
482.00,0.057
483.00,0.057
484.00,0.057
485.00,0.056
486.00,0.056
487.00,0.056
488.00,0.056
489.00,0.056
490.00,0.056
491.00,0.056
492.00,0.056
493.00,0.055
494.00,0.055
495.00,0.055
496.00,0.055
497.00,0.055
498.00,0.055
499.00,0.055
500.00,0.055
501.00,0.054
502.00,0.054
503.00,0.054
504.00,0.054
505.00,0.054
506.00,0.054
507.00,0.054
508.00,0.054
509.00,0.054
510.00,0.054
511.00,0.054
512.00,0.053
513.00,0.053
514.00,0.053
515.00,0.053
516.00,0.053
517.00,0.053
518.00,0.053
519.00,0.053
520.00,0.053
521.00,0.053
522.00,0.052
523.00,0.052
524.00,0.052
525.00,0.052
526.00,0.052
527.00,0.052
528.00,0.052
529.00,0.052
530.00,0.052
531.00,0.051
532.00,0.051
533.00,0.051
534.00,0.051
535.00,0.051
536.00,0.051
537.00,0.051
538.00,0.051
539.00,0.051
540.00,0.051
541.00,0.051
542.00,0.051
543.00,0.050
544.00,0.050
545.00,0.050
546.00,0.050
547.00,0.050
548.00,0.050
549.00,0.050
550.00,0.050
551.00,0.050
552.00,0.050
553.00,0.050
554.00,0.050
555.00,0.050
556.00,0.050
557.00,0.049
558.00,0.049
559.00,0.049
560.00,0.049
561.00,0.049
562.00,0.049
563.00,0.049
564.00,0.049
565.00,0.049
566.00,0.049
567.00,0.049
568.00,0.049
569.00,0.049
570.00,0.049
571.00,0.049
572.00,0.048
573.00,0.048
574.00,0.048
575.00,0.048
576.00,0.048
577.00,0.048
578.00,0.048
579.00,0.048
580.00,0.048
581.00,0.048
582.00,0.048
583.00,0.048
584.00,0.048
585.00,0.048
586.00,0.048
587.00,0.048
588.00,0.048
589.00,0.048
590.00,0.048
591.00,0.048
592.00,0.048
593.00,0.048
594.00,0.048
595.00,0.048
596.00,0.048
597.00,0.048
598.00,0.048
599.00,0.048
600.00,0.048
601.00,0.047
602.00,0.047
603.00,0.048
604.00,0.048
605.00,0.047
606.00,0.047
607.00,0.047
608.00,0.047
609.00,0.047
610.00,0.047
611.00,0.047
612.00,0.047
613.00,0.047
614.00,0.047
615.00,0.047
616.00,0.047
617.00,0.047
618.00,0.047
619.00,0.047
620.00,0.047
621.00,0.047
622.00,0.047
623.00,0.047
624.00,0.047
625.00,0.047
626.00,0.046
627.00,0.046
628.00,0.046
629.00,0.046
630.00,0.046
631.00,0.046
632.00,0.046
633.00,0.046
634.00,0.046
635.00,0.046
636.00,0.046
637.00,0.046
638.00,0.046
639.00,0.046
640.00,0.046
641.00,0.046
642.00,0.046
643.00,0.046
644.00,0.046
645.00,0.046
646.00,0.046
647.00,0.046
648.00,0.046
649.00,0.046
650.00,0.046
651.00,0.046
652.00,0.046
653.00,0.046
654.00,0.046
655.00,0.046
656.00,0.046
657.00,0.046
658.00,0.046
659.00,0.046
660.00,0.046
661.00,0.046
662.00,0.046
663.00,0.046
664.00,0.046
665.00,0.045
666.00,0.045
667.00,0.045
668.00,0.045
669.00,0.045
670.00,0.045
671.00,0.045
672.00,0.045
673.00,0.045
674.00,0.045
675.00,0.045
676.00,0.045
677.00,0.045
678.00,0.045
679.00,0.045
680.00,0.045
681.00,0.045
682.00,0.045
683.00,0.045
684.00,0.045
685.00,0.045
686.00,0.045
687.00,0.045
688.00,0.045
689.00,0.045
690.00,0.045
691.00,0.045
692.00,0.045
693.00,0.045
694.00,0.045
695.00,0.045
696.00,0.045
697.00,0.045
698.00,0.045
699.00,0.045
700.00,0.045
701.00,0.045
702.00,0.045
703.00,0.045
704.00,0.045
705.00,0.045
706.00,0.045
707.00,0.045
708.00,0.045
709.00,0.046
710.00,0.046
711.00,0.046
712.00,0.046
713.00,0.046
714.00,0.046
715.00,0.046
716.00,0.046
717.00,0.047
718.00,0.047
719.00,0.047
720.00,0.047
721.00,0.047
722.00,0.048
723.00,0.048
724.00,0.048
725.00,0.048
726.00,0.048
727.00,0.049
728.00,0.049
729.00,0.050
730.00,0.050
731.00,0.051
732.00,0.051
733.00,0.052
734.00,0.052
735.00,0.052
736.00,0.053
737.00,0.053
738.00,0.053
739.00,0.053
740.00,0.053
741.00,0.053
742.00,0.053
743.00,0.053
744.00,0.053
745.00,0.053
746.00,0.053
747.00,0.053
748.00,0.053
749.00,0.053
750.00,0.053
751.00,0.053
752.00,0.053
753.00,0.053
754.00,0.053
755.00,0.053
756.00,0.053
757.00,0.053
758.00,0.053
759.00,0.053
760.00,0.053
761.00,0.053
762.00,0.053
763.00,0.053
764.00,0.053
765.00,0.053
766.00,0.053
767.00,0.053
768.00,0.053
769.00,0.053
770.00,0.052
771.00,0.052
772.00,0.052
773.00,0.052
774.00,0.052
775.00,0.052
776.00,0.052
777.00,0.052
778.00,0.052
779.00,0.052
780.00,0.052
781.00,0.052
782.00,0.051
783.00,0.051
784.00,0.051
785.00,0.051
786.00,0.051
787.00,0.051
788.00,0.051
789.00,0.051
790.00,0.051
791.00,0.050
792.00,0.050
793.00,0.050
794.00,0.050
795.00,0.050
796.00,0.050
797.00,0.050
798.00,0.050
799.00,0.049
800.00,0.049
801.00,0.049
802.00,0.049
803.00,0.049
804.00,0.049
805.00,0.049
806.00,0.049
807.00,0.049
808.00,0.049
809.00,0.049
810.00,0.049
811.00,0.049
812.00,0.049
813.00,0.049
814.00,0.049
815.00,0.049
816.00,0.049
817.00,0.049
818.00,0.049
819.00,0.049
820.00,0.050
821.00,0.050
822.00,0.050
823.00,0.050
824.00,0.050
825.00,0.051
826.00,0.051
827.00,0.052
828.00,0.052
829.00,0.053
830.00,0.053
831.00,0.054
832.00,0.054
833.00,0.055
834.00,0.055
835.00,0.055
836.00,0.055
837.00,0.056
838.00,0.056
839.00,0.056
840.00,0.056
841.00,0.056
842.00,0.056
843.00,0.056
844.00,0.056
845.00,0.056
846.00,0.057
847.00,0.057
848.00,0.057
849.00,0.057
850.00,0.057
851.00,0.057
852.00,0.057
853.00,0.057
854.00,0.057
855.00,0.057
856.00,0.057
857.00,0.058
858.00,0.058
859.00,0.058
860.00,0.058
861.00,0.058
862.00,0.058
863.00,0.058
864.00,0.058
865.00,0.058
866.00,0.058
867.00,0.058
868.00,0.058
869.00,0.059
870.00,0.059
871.00,0.059
872.00,0.059
873.00,0.059
874.00,0.059
875.00,0.060
876.00,0.060
877.00,0.060
878.00,0.060
879.00,0.060
880.00,0.061
881.00,0.061
882.00,0.061
883.00,0.061
884.00,0.061
885.00,0.062
886.00,0.062
887.00,0.062
888.00,0.062
889.00,0.063
890.00,0.063
891.00,0.063
892.00,0.063
893.00,0.063
894.00,0.064
895.00,0.064
896.00,0.064
897.00,0.064
898.00,0.064
899.00,0.065
900.00,0.065
