"BdMCelebrante50x - RawData"
"Wavelength nm.","Abs."
190.00,3.146
191.00,3.572
192.00,3.527
193.00,3.595
194.00,3.782
195.00,3.543
196.00,3.792
197.00,3.880
198.00,3.796
199.00,3.786
200.00,3.947
201.00,3.788
202.00,3.800
203.00,3.784
204.00,3.822
205.00,3.891
206.00,3.818
207.00,3.782
208.00,3.865
209.00,3.869
210.00,3.738
211.00,3.562
212.00,3.484
213.00,3.352
214.00,3.182
215.00,3.070
216.00,2.918
217.00,2.771
218.00,2.648
219.00,2.514
220.00,2.373
221.00,2.259
222.00,2.147
223.00,2.032
224.00,1.914
225.00,1.801
226.00,1.689
227.00,1.578
228.00,1.471
229.00,1.373
230.00,1.282
231.00,1.201
232.00,1.128
233.00,1.064
234.00,1.010
235.00,0.965
236.00,0.929
237.00,0.899
238.00,0.877
239.00,0.860
240.00,0.848
241.00,0.840
242.00,0.837
243.00,0.836
244.00,0.838
245.00,0.842
246.00,0.848
247.00,0.855
248.00,0.862
249.00,0.870
250.00,0.878
251.00,0.887
252.00,0.895
253.00,0.904
254.00,0.912
255.00,0.919
256.00,0.927
257.00,0.932
258.00,0.935
259.00,0.937
260.00,0.937
261.00,0.938
262.00,0.937
263.00,0.937
264.00,0.937
265.00,0.934
266.00,0.932
267.00,0.927
268.00,0.921
269.00,0.913
270.00,0.903
271.00,0.892
272.00,0.880
273.00,0.866
274.00,0.850
275.00,0.833
276.00,0.815
277.00,0.796
278.00,0.775
279.00,0.753
280.00,0.731
281.00,0.709
282.00,0.686
283.00,0.661
284.00,0.637
285.00,0.611
286.00,0.587
287.00,0.563
288.00,0.540
289.00,0.518
290.00,0.494
291.00,0.472
292.00,0.452
293.00,0.433
294.00,0.419
295.00,0.405
296.00,0.393
297.00,0.383
298.00,0.374
299.00,0.365
300.00,0.358
301.00,0.351
302.00,0.345
303.00,0.340
304.00,0.335
305.00,0.331
306.00,0.326
307.00,0.322
308.00,0.318
309.00,0.315
310.00,0.311
311.00,0.308
312.00,0.305
313.00,0.302
314.00,0.299
315.00,0.296
316.00,0.293
317.00,0.290
318.00,0.287
319.00,0.284
320.00,0.281
321.00,0.277
322.00,0.273
323.00,0.270
324.00,0.266
325.00,0.262
326.00,0.258
327.00,0.254
328.00,0.249
329.00,0.244
330.00,0.239
331.00,0.235
332.00,0.230
333.00,0.225
334.00,0.220
335.00,0.215
336.00,0.210
337.00,0.205
338.00,0.200
339.00,0.195
340.00,0.191
341.00,0.184
342.00,0.179
343.00,0.175
344.00,0.170
345.00,0.166
346.00,0.162
347.00,0.158
348.00,0.153
349.00,0.149
350.00,0.146
351.00,0.142
352.00,0.138
353.00,0.135
354.00,0.132
355.00,0.129
356.00,0.125
357.00,0.123
358.00,0.120
359.00,0.117
360.00,0.114
361.00,0.112
362.00,0.110
363.00,0.108
364.00,0.106
365.00,0.103
366.00,0.101
367.00,0.099
368.00,0.098
369.00,0.096
370.00,0.094
371.00,0.093
372.00,0.092
373.00,0.090
374.00,0.088
375.00,0.087
376.00,0.086
377.00,0.084
378.00,0.083
379.00,0.082
380.00,0.081
381.00,0.080
382.00,0.079
383.00,0.078
384.00,0.077
385.00,0.076
386.00,0.075
387.00,0.074
388.00,0.073
389.00,0.073
390.00,0.072
391.00,0.071
392.00,0.071
393.00,0.070
394.00,0.069
395.00,0.069
396.00,0.068
397.00,0.068
398.00,0.067
399.00,0.067
400.00,0.066
401.00,0.066
402.00,0.065
403.00,0.065
404.00,0.064
405.00,0.064
406.00,0.064
407.00,0.063
408.00,0.063
409.00,0.063
410.00,0.062
411.00,0.062
412.00,0.062
413.00,0.061
414.00,0.061
415.00,0.061
416.00,0.060
417.00,0.060
418.00,0.060
419.00,0.060
420.00,0.060
421.00,0.060
422.00,0.059
423.00,0.059
424.00,0.059
425.00,0.059
426.00,0.058
427.00,0.058
428.00,0.058
429.00,0.058
430.00,0.058
431.00,0.057
432.00,0.057
433.00,0.057
434.00,0.057
435.00,0.057
436.00,0.057
437.00,0.056
438.00,0.056
439.00,0.056
440.00,0.056
441.00,0.056
442.00,0.056
443.00,0.055
444.00,0.055
445.00,0.055
446.00,0.055
447.00,0.055
448.00,0.055
449.00,0.055
450.00,0.055
451.00,0.054
452.00,0.054
453.00,0.054
454.00,0.054
455.00,0.054
456.00,0.054
457.00,0.054
458.00,0.054
459.00,0.053
460.00,0.053
461.00,0.053
462.00,0.053
463.00,0.053
464.00,0.053
465.00,0.053
466.00,0.053
467.00,0.053
468.00,0.052
469.00,0.052
470.00,0.052
471.00,0.052
472.00,0.052
473.00,0.052
474.00,0.052
475.00,0.052
476.00,0.052
477.00,0.051
478.00,0.051
479.00,0.051
480.00,0.051
481.00,0.051
482.00,0.051
483.00,0.051
484.00,0.051
485.00,0.051
486.00,0.051
487.00,0.050
488.00,0.050
489.00,0.050
490.00,0.050
491.00,0.050
492.00,0.050
493.00,0.050
494.00,0.050
495.00,0.050
496.00,0.050
497.00,0.050
498.00,0.050
499.00,0.049
500.00,0.049
501.00,0.049
502.00,0.049
503.00,0.049
504.00,0.049
505.00,0.049
506.00,0.049
507.00,0.049
508.00,0.049
509.00,0.049
510.00,0.049
511.00,0.049
512.00,0.048
513.00,0.048
514.00,0.048
515.00,0.048
516.00,0.048
517.00,0.048
518.00,0.048
519.00,0.048
520.00,0.048
521.00,0.048
522.00,0.048
523.00,0.048
524.00,0.048
525.00,0.048
526.00,0.048
527.00,0.047
528.00,0.047
529.00,0.047
530.00,0.047
531.00,0.047
532.00,0.047
533.00,0.047
534.00,0.047
535.00,0.047
536.00,0.047
537.00,0.047
538.00,0.047
539.00,0.047
540.00,0.047
541.00,0.047
542.00,0.047
543.00,0.047
544.00,0.047
545.00,0.046
546.00,0.046
547.00,0.046
548.00,0.046
549.00,0.046
550.00,0.046
551.00,0.046
552.00,0.046
553.00,0.046
554.00,0.046
555.00,0.046
556.00,0.046
557.00,0.046
558.00,0.046
559.00,0.046
560.00,0.046
561.00,0.046
562.00,0.046
563.00,0.046
564.00,0.046
565.00,0.046
566.00,0.046
567.00,0.046
568.00,0.046
569.00,0.046
570.00,0.045
571.00,0.045
572.00,0.045
573.00,0.045
574.00,0.045
575.00,0.045
576.00,0.045
577.00,0.045
578.00,0.045
579.00,0.045
580.00,0.045
581.00,0.045
582.00,0.045
583.00,0.045
584.00,0.045
585.00,0.045
586.00,0.045
587.00,0.045
588.00,0.045
589.00,0.045
590.00,0.045
591.00,0.045
592.00,0.045
593.00,0.045
594.00,0.045
595.00,0.045
596.00,0.045
597.00,0.045
598.00,0.045
599.00,0.045
600.00,0.045
601.00,0.045
602.00,0.045
603.00,0.045
604.00,0.045
605.00,0.045
606.00,0.045
607.00,0.045
608.00,0.045
609.00,0.045
610.00,0.045
611.00,0.045
612.00,0.045
613.00,0.045
614.00,0.045
615.00,0.045
616.00,0.045
617.00,0.045
618.00,0.045
619.00,0.045
620.00,0.045
621.00,0.045
622.00,0.045
623.00,0.045
624.00,0.045
625.00,0.045
626.00,0.045
627.00,0.045
628.00,0.045
629.00,0.045
630.00,0.044
631.00,0.044
632.00,0.044
633.00,0.044
634.00,0.044
635.00,0.044
636.00,0.044
637.00,0.044
638.00,0.044
639.00,0.044
640.00,0.044
641.00,0.044
642.00,0.044
643.00,0.044
644.00,0.044
645.00,0.044
646.00,0.044
647.00,0.044
648.00,0.044
649.00,0.044
650.00,0.044
651.00,0.044
652.00,0.044
653.00,0.044
654.00,0.044
655.00,0.044
656.00,0.044
657.00,0.044
658.00,0.044
659.00,0.044
660.00,0.044
661.00,0.044
662.00,0.044
663.00,0.044
664.00,0.044
665.00,0.044
666.00,0.044
667.00,0.044
668.00,0.044
669.00,0.044
670.00,0.044
671.00,0.044
672.00,0.044
673.00,0.044
674.00,0.044
675.00,0.044
676.00,0.044
677.00,0.044
678.00,0.044
679.00,0.044
680.00,0.044
681.00,0.044
682.00,0.044
683.00,0.044
684.00,0.044
685.00,0.044
686.00,0.044
687.00,0.044
688.00,0.044
689.00,0.044
690.00,0.044
691.00,0.044
692.00,0.044
693.00,0.044
694.00,0.044
695.00,0.044
696.00,0.044
697.00,0.044
698.00,0.044
699.00,0.044
700.00,0.045
701.00,0.045
702.00,0.045
703.00,0.045
704.00,0.045
705.00,0.045
706.00,0.045
707.00,0.045
708.00,0.045
709.00,0.045
710.00,0.045
711.00,0.045
712.00,0.045
713.00,0.046
714.00,0.046
715.00,0.046
716.00,0.046
717.00,0.046
718.00,0.046
719.00,0.047
720.00,0.047
721.00,0.047
722.00,0.047
723.00,0.048
724.00,0.048
725.00,0.048
726.00,0.048
727.00,0.049
728.00,0.049
729.00,0.049
730.00,0.050
731.00,0.050
732.00,0.051
733.00,0.051
734.00,0.052
735.00,0.052
736.00,0.052
737.00,0.053
738.00,0.053
739.00,0.053
740.00,0.053
741.00,0.053
742.00,0.053
743.00,0.053
744.00,0.053
745.00,0.053
746.00,0.053
747.00,0.053
748.00,0.053
749.00,0.053
750.00,0.053
751.00,0.053
752.00,0.053
753.00,0.053
754.00,0.053
755.00,0.053
756.00,0.053
757.00,0.053
758.00,0.053
759.00,0.053
760.00,0.053
761.00,0.053
762.00,0.053
763.00,0.053
764.00,0.053
765.00,0.053
766.00,0.053
767.00,0.053
768.00,0.053
769.00,0.053
770.00,0.053
771.00,0.052
772.00,0.052
773.00,0.052
774.00,0.052
775.00,0.052
776.00,0.052
777.00,0.052
778.00,0.052
779.00,0.052
780.00,0.052
781.00,0.052
782.00,0.052
783.00,0.052
784.00,0.052
785.00,0.051
786.00,0.051
787.00,0.051
788.00,0.051
789.00,0.051
790.00,0.051
791.00,0.051
792.00,0.051
793.00,0.051
794.00,0.050
795.00,0.050
796.00,0.050
797.00,0.050
798.00,0.050
799.00,0.050
800.00,0.050
801.00,0.050
802.00,0.050
803.00,0.050
804.00,0.050
805.00,0.050
806.00,0.049
807.00,0.049
808.00,0.049
809.00,0.049
810.00,0.049
811.00,0.050
812.00,0.050
813.00,0.050
814.00,0.050
815.00,0.050
816.00,0.050
817.00,0.050
818.00,0.050
819.00,0.050
820.00,0.050
821.00,0.050
822.00,0.051
823.00,0.051
824.00,0.051
825.00,0.052
826.00,0.052
827.00,0.052
828.00,0.053
829.00,0.054
830.00,0.054
831.00,0.055
832.00,0.055
833.00,0.056
834.00,0.056
835.00,0.056
836.00,0.056
837.00,0.057
838.00,0.057
839.00,0.057
840.00,0.057
841.00,0.057
842.00,0.057
843.00,0.057
844.00,0.057
845.00,0.058
846.00,0.058
847.00,0.058
848.00,0.058
849.00,0.058
850.00,0.058
851.00,0.058
852.00,0.058
853.00,0.059
854.00,0.059
855.00,0.059
856.00,0.059
857.00,0.059
858.00,0.059
859.00,0.059
860.00,0.059
861.00,0.059
862.00,0.059
863.00,0.060
864.00,0.060
865.00,0.060
866.00,0.060
867.00,0.060
868.00,0.060
869.00,0.061
870.00,0.061
871.00,0.061
872.00,0.061
873.00,0.061
874.00,0.061
875.00,0.062
876.00,0.062
877.00,0.062
878.00,0.062
879.00,0.063
880.00,0.063
881.00,0.063
882.00,0.063
883.00,0.064
884.00,0.064
885.00,0.064
886.00,0.064
887.00,0.065
888.00,0.065
889.00,0.065
890.00,0.065
891.00,0.065
892.00,0.066
893.00,0.066
894.00,0.066
895.00,0.066
896.00,0.067
897.00,0.067
898.00,0.067
899.00,0.067
900.00,0.068
