"LocasionBDM50x - RawData"
"Wavelength nm.","Abs."
190.00,3.559
191.00,3.782
192.00,3.883
193.00,3.883
194.00,3.813
195.00,3.802
196.00,3.963
197.00,3.986
198.00,3.828
199.00,3.896
200.00,3.676
201.00,3.576
202.00,3.449
203.00,3.297
204.00,3.162
205.00,3.010
206.00,2.860
207.00,2.739
208.00,2.624
209.00,2.517
210.00,2.395
211.00,2.282
212.00,2.184
213.00,2.088
214.00,1.995
215.00,1.904
216.00,1.817
217.00,1.735
218.00,1.655
219.00,1.579
220.00,1.505
221.00,1.437
222.00,1.371
223.00,1.307
224.00,1.242
225.00,1.181
226.00,1.122
227.00,1.062
228.00,1.005
229.00,0.954
230.00,0.905
231.00,0.861
232.00,0.822
233.00,0.787
234.00,0.757
235.00,0.731
236.00,0.708
237.00,0.689
238.00,0.673
239.00,0.659
240.00,0.648
241.00,0.638
242.00,0.631
243.00,0.626
244.00,0.622
245.00,0.620
246.00,0.618
247.00,0.617
248.00,0.617
249.00,0.617
250.00,0.618
251.00,0.619
252.00,0.621
253.00,0.623
254.00,0.624
255.00,0.626
256.00,0.627
257.00,0.628
258.00,0.628
259.00,0.628
260.00,0.627
261.00,0.627
262.00,0.626
263.00,0.625
264.00,0.624
265.00,0.623
266.00,0.622
267.00,0.620
268.00,0.617
269.00,0.614
270.00,0.610
271.00,0.604
272.00,0.599
273.00,0.592
274.00,0.584
275.00,0.576
276.00,0.567
277.00,0.557
278.00,0.546
279.00,0.535
280.00,0.524
281.00,0.512
282.00,0.500
283.00,0.486
284.00,0.471
285.00,0.456
286.00,0.442
287.00,0.427
288.00,0.412
289.00,0.397
290.00,0.381
291.00,0.366
292.00,0.353
293.00,0.341
294.00,0.331
295.00,0.321
296.00,0.313
297.00,0.307
298.00,0.300
299.00,0.294
300.00,0.289
301.00,0.284
302.00,0.280
303.00,0.276
304.00,0.273
305.00,0.270
306.00,0.267
307.00,0.264
308.00,0.262
309.00,0.260
310.00,0.257
311.00,0.255
312.00,0.253
313.00,0.251
314.00,0.249
315.00,0.247
316.00,0.246
317.00,0.244
318.00,0.241
319.00,0.239
320.00,0.237
321.00,0.235
322.00,0.233
323.00,0.230
324.00,0.228
325.00,0.225
326.00,0.222
327.00,0.220
328.00,0.217
329.00,0.214
330.00,0.211
331.00,0.208
332.00,0.205
333.00,0.202
334.00,0.198
335.00,0.195
336.00,0.192
337.00,0.189
338.00,0.186
339.00,0.183
340.00,0.180
341.00,0.176
342.00,0.173
343.00,0.169
344.00,0.167
345.00,0.163
346.00,0.161
347.00,0.158
348.00,0.155
349.00,0.152
350.00,0.150
351.00,0.147
352.00,0.145
353.00,0.143
354.00,0.140
355.00,0.138
356.00,0.135
357.00,0.134
358.00,0.132
359.00,0.129
360.00,0.127
361.00,0.126
362.00,0.123
363.00,0.122
364.00,0.121
365.00,0.119
366.00,0.117
367.00,0.116
368.00,0.114
369.00,0.113
370.00,0.111
371.00,0.109
372.00,0.108
373.00,0.107
374.00,0.105
375.00,0.104
376.00,0.103
377.00,0.101
378.00,0.100
379.00,0.099
380.00,0.097
381.00,0.096
382.00,0.095
383.00,0.094
384.00,0.092
385.00,0.091
386.00,0.090
387.00,0.089
388.00,0.088
389.00,0.087
390.00,0.086
391.00,0.085
392.00,0.084
393.00,0.083
394.00,0.082
395.00,0.081
396.00,0.080
397.00,0.079
398.00,0.079
399.00,0.078
400.00,0.077
401.00,0.076
402.00,0.076
403.00,0.075
404.00,0.074
405.00,0.074
406.00,0.073
407.00,0.072
408.00,0.072
409.00,0.071
410.00,0.071
411.00,0.070
412.00,0.070
413.00,0.070
414.00,0.069
415.00,0.069
416.00,0.068
417.00,0.068
418.00,0.068
419.00,0.067
420.00,0.067
421.00,0.067
422.00,0.066
423.00,0.066
424.00,0.066
425.00,0.065
426.00,0.065
427.00,0.065
428.00,0.065
429.00,0.064
430.00,0.064
431.00,0.064
432.00,0.064
433.00,0.063
434.00,0.063
435.00,0.063
436.00,0.063
437.00,0.063
438.00,0.062
439.00,0.062
440.00,0.062
441.00,0.062
442.00,0.062
443.00,0.061
444.00,0.061
445.00,0.061
446.00,0.061
447.00,0.061
448.00,0.060
449.00,0.060
450.00,0.060
451.00,0.060
452.00,0.060
453.00,0.060
454.00,0.060
455.00,0.059
456.00,0.059
457.00,0.059
458.00,0.059
459.00,0.059
460.00,0.059
461.00,0.058
462.00,0.058
463.00,0.058
464.00,0.058
465.00,0.058
466.00,0.058
467.00,0.058
468.00,0.057
469.00,0.057
470.00,0.057
471.00,0.057
472.00,0.057
473.00,0.057
474.00,0.057
475.00,0.057
476.00,0.056
477.00,0.056
478.00,0.056
479.00,0.056
480.00,0.056
481.00,0.056
482.00,0.056
483.00,0.056
484.00,0.055
485.00,0.055
486.00,0.055
487.00,0.055
488.00,0.055
489.00,0.055
490.00,0.055
491.00,0.055
492.00,0.055
493.00,0.054
494.00,0.054
495.00,0.054
496.00,0.054
497.00,0.054
498.00,0.054
499.00,0.054
500.00,0.054
501.00,0.053
502.00,0.053
503.00,0.053
504.00,0.053
505.00,0.053
506.00,0.053
507.00,0.053
508.00,0.053
509.00,0.053
510.00,0.053
511.00,0.053
512.00,0.052
513.00,0.052
514.00,0.052
515.00,0.052
516.00,0.052
517.00,0.052
518.00,0.052
519.00,0.052
520.00,0.052
521.00,0.052
522.00,0.051
523.00,0.051
524.00,0.051
525.00,0.051
526.00,0.051
527.00,0.051
528.00,0.051
529.00,0.051
530.00,0.051
531.00,0.051
532.00,0.051
533.00,0.051
534.00,0.050
535.00,0.050
536.00,0.051
537.00,0.050
538.00,0.050
539.00,0.050
540.00,0.050
541.00,0.050
542.00,0.050
543.00,0.050
544.00,0.050
545.00,0.050
546.00,0.050
547.00,0.050
548.00,0.049
549.00,0.049
550.00,0.049
551.00,0.049
552.00,0.049
553.00,0.049
554.00,0.049
555.00,0.049
556.00,0.049
557.00,0.049
558.00,0.049
559.00,0.049
560.00,0.049
561.00,0.049
562.00,0.049
563.00,0.048
564.00,0.048
565.00,0.048
566.00,0.048
567.00,0.048
568.00,0.048
569.00,0.048
570.00,0.048
571.00,0.048
572.00,0.048
573.00,0.048
574.00,0.048
575.00,0.048
576.00,0.048
577.00,0.048
578.00,0.048
579.00,0.048
580.00,0.048
581.00,0.047
582.00,0.047
583.00,0.047
584.00,0.047
585.00,0.047
586.00,0.047
587.00,0.047
588.00,0.047
589.00,0.047
590.00,0.047
591.00,0.047
592.00,0.047
593.00,0.047
594.00,0.047
595.00,0.047
596.00,0.047
597.00,0.047
598.00,0.047
599.00,0.047
600.00,0.047
601.00,0.047
602.00,0.047
603.00,0.047
604.00,0.047
605.00,0.047
606.00,0.047
607.00,0.047
608.00,0.047
609.00,0.047
610.00,0.047
611.00,0.047
612.00,0.047
613.00,0.047
614.00,0.047
615.00,0.047
616.00,0.046
617.00,0.046
618.00,0.046
619.00,0.046
620.00,0.046
621.00,0.046
622.00,0.046
623.00,0.046
624.00,0.046
625.00,0.046
626.00,0.046
627.00,0.046
628.00,0.046
629.00,0.046
630.00,0.046
631.00,0.046
632.00,0.046
633.00,0.046
634.00,0.046
635.00,0.046
636.00,0.045
637.00,0.045
638.00,0.045
639.00,0.045
640.00,0.045
641.00,0.045
642.00,0.045
643.00,0.045
644.00,0.045
645.00,0.045
646.00,0.045
647.00,0.045
648.00,0.045
649.00,0.045
650.00,0.045
651.00,0.045
652.00,0.045
653.00,0.045
654.00,0.045
655.00,0.045
656.00,0.045
657.00,0.045
658.00,0.045
659.00,0.045
660.00,0.045
661.00,0.045
662.00,0.045
663.00,0.045
664.00,0.045
665.00,0.045
666.00,0.045
667.00,0.045
668.00,0.045
669.00,0.045
670.00,0.045
671.00,0.045
672.00,0.045
673.00,0.045
674.00,0.045
675.00,0.045
676.00,0.045
677.00,0.045
678.00,0.045
679.00,0.045
680.00,0.045
681.00,0.045
682.00,0.045
683.00,0.044
684.00,0.044
685.00,0.044
686.00,0.044
687.00,0.044
688.00,0.044
689.00,0.044
690.00,0.044
691.00,0.044
692.00,0.044
693.00,0.044
694.00,0.044
695.00,0.044
696.00,0.044
697.00,0.044
698.00,0.044
699.00,0.044
700.00,0.044
701.00,0.044
702.00,0.044
703.00,0.044
704.00,0.045
705.00,0.045
706.00,0.045
707.00,0.045
708.00,0.045
709.00,0.045
710.00,0.045
711.00,0.045
712.00,0.045
713.00,0.045
714.00,0.045
715.00,0.046
716.00,0.046
717.00,0.046
718.00,0.046
719.00,0.046
720.00,0.046
721.00,0.047
722.00,0.047
723.00,0.047
724.00,0.047
725.00,0.047
726.00,0.048
727.00,0.048
728.00,0.049
729.00,0.049
730.00,0.049
731.00,0.050
732.00,0.050
733.00,0.051
734.00,0.051
735.00,0.052
736.00,0.052
737.00,0.052
738.00,0.052
739.00,0.052
740.00,0.052
741.00,0.053
742.00,0.053
743.00,0.053
744.00,0.053
745.00,0.053
746.00,0.052
747.00,0.052
748.00,0.052
749.00,0.052
750.00,0.052
751.00,0.052
752.00,0.052
753.00,0.052
754.00,0.052
755.00,0.052
756.00,0.052
757.00,0.052
758.00,0.052
759.00,0.052
760.00,0.052
761.00,0.052
762.00,0.052
763.00,0.052
764.00,0.052
765.00,0.052
766.00,0.052
767.00,0.052
768.00,0.052
769.00,0.051
770.00,0.051
771.00,0.051
772.00,0.051
773.00,0.051
774.00,0.051
775.00,0.051
776.00,0.051
777.00,0.051
778.00,0.051
779.00,0.051
780.00,0.050
781.00,0.050
782.00,0.050
783.00,0.050
784.00,0.050
785.00,0.050
786.00,0.050
787.00,0.050
788.00,0.050
789.00,0.049
790.00,0.049
791.00,0.049
792.00,0.049
793.00,0.049
794.00,0.049
795.00,0.049
796.00,0.049
797.00,0.048
798.00,0.048
799.00,0.048
800.00,0.048
801.00,0.048
802.00,0.048
803.00,0.048
804.00,0.048
805.00,0.048
806.00,0.048
807.00,0.048
808.00,0.048
809.00,0.048
810.00,0.048
811.00,0.048
812.00,0.048
813.00,0.048
814.00,0.048
815.00,0.048
816.00,0.048
817.00,0.048
818.00,0.048
819.00,0.048
820.00,0.048
821.00,0.048
822.00,0.049
823.00,0.049
824.00,0.049
825.00,0.050
826.00,0.050
827.00,0.051
828.00,0.051
829.00,0.052
830.00,0.052
831.00,0.053
832.00,0.053
833.00,0.054
834.00,0.054
835.00,0.054
836.00,0.055
837.00,0.055
838.00,0.055
839.00,0.055
840.00,0.055
841.00,0.055
842.00,0.055
843.00,0.055
844.00,0.055
845.00,0.056
846.00,0.056
847.00,0.056
848.00,0.056
849.00,0.056
850.00,0.056
851.00,0.056
852.00,0.056
853.00,0.056
854.00,0.056
855.00,0.056
856.00,0.057
857.00,0.057
858.00,0.057
859.00,0.057
860.00,0.057
861.00,0.057
862.00,0.057
863.00,0.057
864.00,0.057
865.00,0.057
866.00,0.057
867.00,0.058
868.00,0.058
869.00,0.058
870.00,0.058
871.00,0.058
872.00,0.058
873.00,0.058
874.00,0.059
875.00,0.059
876.00,0.059
877.00,0.059
878.00,0.059
879.00,0.060
880.00,0.060
881.00,0.060
882.00,0.060
883.00,0.061
884.00,0.061
885.00,0.061
886.00,0.061
887.00,0.061
888.00,0.062
889.00,0.062
890.00,0.062
891.00,0.062
892.00,0.063
893.00,0.063
894.00,0.063
895.00,0.063
896.00,0.063
897.00,0.064
898.00,0.064
899.00,0.064
900.00,0.064
