"BDMTrinqueur_100x - RawData"
"Wavelength nm.","Abs."
190.00,2.849
191.00,3.292
192.00,3.121
193.00,3.082
194.00,3.163
195.00,3.195
196.00,3.339
197.00,3.420
198.00,3.646
199.00,3.595
200.00,3.489
201.00,3.506
202.00,3.634
203.00,3.587
204.00,3.552
205.00,3.710
206.00,3.754
207.00,3.590
208.00,3.720
209.00,3.639
210.00,3.607
211.00,3.575
212.00,3.499
213.00,3.404
214.00,3.346
215.00,3.287
216.00,3.167
217.00,3.087
218.00,2.988
219.00,2.876
220.00,2.755
221.00,2.653
222.00,2.561
223.00,2.459
224.00,2.361
225.00,2.259
226.00,2.161
227.00,2.065
228.00,1.971
229.00,1.882
230.00,1.795
231.00,1.712
232.00,1.638
233.00,1.568
234.00,1.505
235.00,1.450
236.00,1.403
237.00,1.362
238.00,1.325
239.00,1.294
240.00,1.268
241.00,1.247
242.00,1.234
243.00,1.225
244.00,1.219
245.00,1.218
246.00,1.218
247.00,1.221
248.00,1.224
249.00,1.229
250.00,1.234
251.00,1.241
252.00,1.248
253.00,1.255
254.00,1.261
255.00,1.269
256.00,1.275
257.00,1.280
258.00,1.284
259.00,1.287
260.00,1.288
261.00,1.290
262.00,1.290
263.00,1.291
264.00,1.291
265.00,1.291
266.00,1.289
267.00,1.285
268.00,1.282
269.00,1.277
270.00,1.271
271.00,1.264
272.00,1.256
273.00,1.246
274.00,1.237
275.00,1.227
276.00,1.215
277.00,1.203
278.00,1.189
279.00,1.174
280.00,1.161
281.00,1.147
282.00,1.132
283.00,1.115
284.00,1.099
285.00,1.082
286.00,1.064
287.00,1.047
288.00,1.031
289.00,1.014
290.00,0.996
291.00,0.977
292.00,0.960
293.00,0.944
294.00,0.930
295.00,0.915
296.00,0.903
297.00,0.890
298.00,0.877
299.00,0.865
300.00,0.852
301.00,0.840
302.00,0.828
303.00,0.816
304.00,0.804
305.00,0.792
306.00,0.780
307.00,0.767
308.00,0.755
309.00,0.743
310.00,0.730
311.00,0.718
312.00,0.706
313.00,0.694
314.00,0.683
315.00,0.672
316.00,0.661
317.00,0.650
318.00,0.639
319.00,0.628
320.00,0.617
321.00,0.606
322.00,0.595
323.00,0.584
324.00,0.574
325.00,0.564
326.00,0.554
327.00,0.544
328.00,0.534
329.00,0.524
330.00,0.514
331.00,0.505
332.00,0.496
333.00,0.487
334.00,0.478
335.00,0.469
336.00,0.461
337.00,0.454
338.00,0.445
339.00,0.437
340.00,0.429
341.00,0.421
342.00,0.412
343.00,0.405
344.00,0.398
345.00,0.392
346.00,0.385
347.00,0.378
348.00,0.372
349.00,0.365
350.00,0.359
351.00,0.353
352.00,0.348
353.00,0.342
354.00,0.336
355.00,0.331
356.00,0.325
357.00,0.320
358.00,0.314
359.00,0.309
360.00,0.305
361.00,0.300
362.00,0.295
363.00,0.290
364.00,0.286
365.00,0.282
366.00,0.278
367.00,0.274
368.00,0.270
369.00,0.266
370.00,0.262
371.00,0.258
372.00,0.254
373.00,0.250
374.00,0.247
375.00,0.243
376.00,0.240
377.00,0.236
378.00,0.233
379.00,0.230
380.00,0.226
381.00,0.223
382.00,0.220
383.00,0.217
384.00,0.214
385.00,0.211
386.00,0.208
387.00,0.205
388.00,0.203
389.00,0.200
390.00,0.198
391.00,0.195
392.00,0.192
393.00,0.190
394.00,0.188
395.00,0.185
396.00,0.183
397.00,0.181
398.00,0.179
399.00,0.177
400.00,0.175
401.00,0.173
402.00,0.171
403.00,0.169
404.00,0.167
405.00,0.165
406.00,0.164
407.00,0.162
408.00,0.160
409.00,0.158
410.00,0.157
411.00,0.155
412.00,0.154
413.00,0.152
414.00,0.150
415.00,0.149
416.00,0.147
417.00,0.146
418.00,0.145
419.00,0.144
420.00,0.142
421.00,0.141
422.00,0.140
423.00,0.138
424.00,0.137
425.00,0.136
426.00,0.134
427.00,0.133
428.00,0.132
429.00,0.131
430.00,0.129
431.00,0.128
432.00,0.127
433.00,0.126
434.00,0.125
435.00,0.124
436.00,0.123
437.00,0.122
438.00,0.121
439.00,0.120
440.00,0.119
441.00,0.118
442.00,0.117
443.00,0.116
444.00,0.115
445.00,0.114
446.00,0.113
447.00,0.112
448.00,0.111
449.00,0.110
450.00,0.109
451.00,0.108
452.00,0.108
453.00,0.107
454.00,0.106
455.00,0.105
456.00,0.104
457.00,0.104
458.00,0.103
459.00,0.102
460.00,0.101
461.00,0.100
462.00,0.099
463.00,0.099
464.00,0.098
465.00,0.097
466.00,0.096
467.00,0.096
468.00,0.095
469.00,0.094
470.00,0.093
471.00,0.093
472.00,0.092
473.00,0.091
474.00,0.091
475.00,0.090
476.00,0.089
477.00,0.088
478.00,0.088
479.00,0.087
480.00,0.086
481.00,0.086
482.00,0.085
483.00,0.084
484.00,0.084
485.00,0.083
486.00,0.083
487.00,0.082
488.00,0.081
489.00,0.081
490.00,0.080
491.00,0.080
492.00,0.079
493.00,0.079
494.00,0.078
495.00,0.078
496.00,0.077
497.00,0.077
498.00,0.076
499.00,0.076
500.00,0.075
501.00,0.075
502.00,0.074
503.00,0.074
504.00,0.073
505.00,0.073
506.00,0.072
507.00,0.072
508.00,0.071
509.00,0.071
510.00,0.071
511.00,0.070
512.00,0.070
513.00,0.069
514.00,0.069
515.00,0.069
516.00,0.068
517.00,0.068
518.00,0.067
519.00,0.067
520.00,0.067
521.00,0.066
522.00,0.066
523.00,0.066
524.00,0.065
525.00,0.065
526.00,0.065
527.00,0.064
528.00,0.064
529.00,0.064
530.00,0.063
531.00,0.063
532.00,0.063
533.00,0.062
534.00,0.062
535.00,0.062
536.00,0.062
537.00,0.061
538.00,0.061
539.00,0.060
540.00,0.060
541.00,0.060
542.00,0.060
543.00,0.059
544.00,0.059
545.00,0.059
546.00,0.059
547.00,0.058
548.00,0.058
549.00,0.058
550.00,0.058
551.00,0.058
552.00,0.057
553.00,0.057
554.00,0.057
555.00,0.057
556.00,0.057
557.00,0.056
558.00,0.056
559.00,0.056
560.00,0.056
561.00,0.056
562.00,0.055
563.00,0.055
564.00,0.055
565.00,0.055
566.00,0.055
567.00,0.055
568.00,0.054
569.00,0.054
570.00,0.054
571.00,0.054
572.00,0.054
573.00,0.053
574.00,0.053
575.00,0.053
576.00,0.053
577.00,0.053
578.00,0.053
579.00,0.052
580.00,0.052
581.00,0.052
582.00,0.052
583.00,0.052
584.00,0.052
585.00,0.052
586.00,0.052
587.00,0.051
588.00,0.051
589.00,0.051
590.00,0.051
591.00,0.051
592.00,0.051
593.00,0.051
594.00,0.051
595.00,0.051
596.00,0.050
597.00,0.050
598.00,0.050
599.00,0.050
600.00,0.050
601.00,0.050
602.00,0.050
603.00,0.050
604.00,0.050
605.00,0.050
606.00,0.050
607.00,0.050
608.00,0.049
609.00,0.049
610.00,0.049
611.00,0.049
612.00,0.049
613.00,0.049
614.00,0.049
615.00,0.049
616.00,0.049
617.00,0.049
618.00,0.048
619.00,0.048
620.00,0.048
621.00,0.048
622.00,0.048
623.00,0.048
624.00,0.048
625.00,0.048
626.00,0.048
627.00,0.048
628.00,0.048
629.00,0.048
630.00,0.047
631.00,0.047
632.00,0.047
633.00,0.047
634.00,0.047
635.00,0.047
636.00,0.047
637.00,0.047
638.00,0.047
639.00,0.047
640.00,0.047
641.00,0.046
642.00,0.047
643.00,0.046
644.00,0.046
645.00,0.046
646.00,0.046
647.00,0.046
648.00,0.046
649.00,0.046
650.00,0.046
651.00,0.046
652.00,0.046
653.00,0.046
654.00,0.046
655.00,0.046
656.00,0.046
657.00,0.046
658.00,0.046
659.00,0.046
660.00,0.046
661.00,0.046
662.00,0.046
663.00,0.046
664.00,0.045
665.00,0.045
666.00,0.045
667.00,0.045
668.00,0.045
669.00,0.045
670.00,0.045
671.00,0.045
672.00,0.045
673.00,0.045
674.00,0.045
675.00,0.045
676.00,0.045
677.00,0.045
678.00,0.045
679.00,0.045
680.00,0.045
681.00,0.045
682.00,0.045
683.00,0.045
684.00,0.045
685.00,0.045
686.00,0.045
687.00,0.045
688.00,0.045
689.00,0.045
690.00,0.045
691.00,0.045
692.00,0.045
693.00,0.045
694.00,0.044
695.00,0.045
696.00,0.045
697.00,0.044
698.00,0.045
699.00,0.045
700.00,0.045
701.00,0.045
702.00,0.045
703.00,0.045
704.00,0.045
705.00,0.045
706.00,0.045
707.00,0.045
708.00,0.045
709.00,0.045
710.00,0.045
711.00,0.045
712.00,0.045
713.00,0.045
714.00,0.046
715.00,0.046
716.00,0.046
717.00,0.046
718.00,0.046
719.00,0.046
720.00,0.047
721.00,0.047
722.00,0.047
723.00,0.047
724.00,0.047
725.00,0.048
726.00,0.048
727.00,0.048
728.00,0.048
729.00,0.049
730.00,0.049
731.00,0.050
732.00,0.050
733.00,0.051
734.00,0.051
735.00,0.051
736.00,0.052
737.00,0.052
738.00,0.052
739.00,0.052
740.00,0.052
741.00,0.052
742.00,0.052
743.00,0.052
744.00,0.052
745.00,0.052
746.00,0.052
747.00,0.052
748.00,0.052
749.00,0.052
750.00,0.052
751.00,0.052
752.00,0.052
753.00,0.052
754.00,0.052
755.00,0.052
756.00,0.052
757.00,0.052
758.00,0.052
759.00,0.052
760.00,0.052
761.00,0.052
762.00,0.052
763.00,0.052
764.00,0.052
765.00,0.052
766.00,0.052
767.00,0.052
768.00,0.052
769.00,0.052
770.00,0.052
771.00,0.052
772.00,0.051
773.00,0.051
774.00,0.051
775.00,0.051
776.00,0.051
777.00,0.051
778.00,0.051
779.00,0.051
780.00,0.051
781.00,0.051
782.00,0.050
783.00,0.050
784.00,0.050
785.00,0.050
786.00,0.050
787.00,0.050
788.00,0.050
789.00,0.050
790.00,0.050
791.00,0.050
792.00,0.049
793.00,0.049
794.00,0.049
795.00,0.049
796.00,0.049
797.00,0.049
798.00,0.049
799.00,0.049
800.00,0.049
801.00,0.049
802.00,0.048
803.00,0.048
804.00,0.048
805.00,0.048
806.00,0.048
807.00,0.048
808.00,0.048
809.00,0.048
810.00,0.048
811.00,0.048
812.00,0.048
813.00,0.048
814.00,0.048
815.00,0.048
816.00,0.048
817.00,0.048
818.00,0.048
819.00,0.049
820.00,0.049
821.00,0.049
822.00,0.049
823.00,0.049
824.00,0.050
825.00,0.050
826.00,0.050
827.00,0.051
828.00,0.051
829.00,0.052
830.00,0.053
831.00,0.053
832.00,0.054
833.00,0.054
834.00,0.054
835.00,0.055
836.00,0.055
837.00,0.055
838.00,0.055
839.00,0.055
840.00,0.055
841.00,0.055
842.00,0.056
843.00,0.056
844.00,0.056
845.00,0.056
846.00,0.056
847.00,0.056
848.00,0.056
849.00,0.056
850.00,0.056
851.00,0.056
852.00,0.057
853.00,0.057
854.00,0.057
855.00,0.057
856.00,0.057
857.00,0.057
858.00,0.057
859.00,0.057
860.00,0.057
861.00,0.057
862.00,0.057
863.00,0.058
864.00,0.058
865.00,0.058
866.00,0.058
867.00,0.058
868.00,0.058
869.00,0.058
870.00,0.059
871.00,0.059
872.00,0.059
873.00,0.059
874.00,0.059
875.00,0.059
876.00,0.060
877.00,0.060
878.00,0.060
879.00,0.060
880.00,0.060
881.00,0.061
882.00,0.061
883.00,0.061
884.00,0.061
885.00,0.062
886.00,0.062
887.00,0.062
888.00,0.062
889.00,0.063
890.00,0.063
891.00,0.063
892.00,0.063
893.00,0.063
894.00,0.064
895.00,0.064
896.00,0.064
897.00,0.064
898.00,0.065
899.00,0.065
900.00,0.065
