"BelleGueuleRousse_50x - RawData"
"Wavelength nm.","Abs."
190.00,3.742
191.00,3.008
192.00,2.906
193.00,3.250
194.00,3.372
195.00,3.288
196.00,3.656
197.00,3.480
198.00,3.567
199.00,3.440
200.00,3.558
201.00,3.637
202.00,3.645
203.00,3.550
204.00,3.795
205.00,3.845
206.00,3.549
207.00,3.504
208.00,3.533
209.00,3.290
210.00,3.272
211.00,3.180
212.00,3.139
213.00,2.997
214.00,2.878
215.00,2.768
216.00,2.663
217.00,2.558
218.00,2.445
219.00,2.335
220.00,2.224
221.00,2.127
222.00,2.034
223.00,1.936
224.00,1.837
225.00,1.747
226.00,1.654
227.00,1.558
228.00,1.465
229.00,1.380
230.00,1.298
231.00,1.224
232.00,1.157
233.00,1.096
234.00,1.044
235.00,0.998
236.00,0.958
237.00,0.924
238.00,0.895
239.00,0.870
240.00,0.850
241.00,0.833
242.00,0.820
243.00,0.811
244.00,0.804
245.00,0.799
246.00,0.795
247.00,0.794
248.00,0.793
249.00,0.793
250.00,0.795
251.00,0.798
252.00,0.801
253.00,0.805
254.00,0.809
255.00,0.813
256.00,0.818
257.00,0.823
258.00,0.827
259.00,0.830
260.00,0.833
261.00,0.837
262.00,0.841
263.00,0.845
264.00,0.850
265.00,0.853
266.00,0.856
267.00,0.859
268.00,0.861
269.00,0.861
270.00,0.861
271.00,0.860
272.00,0.858
273.00,0.855
274.00,0.850
275.00,0.843
276.00,0.836
277.00,0.827
278.00,0.816
279.00,0.805
280.00,0.792
281.00,0.779
282.00,0.765
283.00,0.748
284.00,0.731
285.00,0.712
286.00,0.694
287.00,0.676
288.00,0.659
289.00,0.641
290.00,0.621
291.00,0.602
292.00,0.584
293.00,0.568
294.00,0.554
295.00,0.541
296.00,0.530
297.00,0.520
298.00,0.509
299.00,0.499
300.00,0.490
301.00,0.481
302.00,0.473
303.00,0.466
304.00,0.458
305.00,0.451
306.00,0.444
307.00,0.438
308.00,0.431
309.00,0.425
310.00,0.419
311.00,0.413
312.00,0.407
313.00,0.401
314.00,0.396
315.00,0.390
316.00,0.385
317.00,0.380
318.00,0.374
319.00,0.369
320.00,0.363
321.00,0.358
322.00,0.352
323.00,0.346
324.00,0.340
325.00,0.334
326.00,0.328
327.00,0.322
328.00,0.315
329.00,0.309
330.00,0.302
331.00,0.296
332.00,0.290
333.00,0.284
334.00,0.278
335.00,0.272
336.00,0.266
337.00,0.260
338.00,0.253
339.00,0.248
340.00,0.243
341.00,0.236
342.00,0.230
343.00,0.225
344.00,0.220
345.00,0.215
346.00,0.210
347.00,0.206
348.00,0.201
349.00,0.196
350.00,0.192
351.00,0.188
352.00,0.184
353.00,0.180
354.00,0.176
355.00,0.173
356.00,0.169
357.00,0.166
358.00,0.162
359.00,0.159
360.00,0.156
361.00,0.153
362.00,0.150
363.00,0.148
364.00,0.145
365.00,0.143
366.00,0.140
367.00,0.138
368.00,0.135
369.00,0.133
370.00,0.131
371.00,0.129
372.00,0.127
373.00,0.125
374.00,0.123
375.00,0.121
376.00,0.119
377.00,0.118
378.00,0.116
379.00,0.114
380.00,0.113
381.00,0.111
382.00,0.110
383.00,0.108
384.00,0.107
385.00,0.105
386.00,0.104
387.00,0.103
388.00,0.102
389.00,0.100
390.00,0.099
391.00,0.098
392.00,0.097
393.00,0.096
394.00,0.095
395.00,0.094
396.00,0.093
397.00,0.092
398.00,0.091
399.00,0.090
400.00,0.089
401.00,0.088
402.00,0.087
403.00,0.087
404.00,0.086
405.00,0.085
406.00,0.084
407.00,0.084
408.00,0.083
409.00,0.082
410.00,0.081
411.00,0.081
412.00,0.080
413.00,0.080
414.00,0.079
415.00,0.078
416.00,0.078
417.00,0.077
418.00,0.077
419.00,0.076
420.00,0.076
421.00,0.075
422.00,0.075
423.00,0.074
424.00,0.074
425.00,0.073
426.00,0.072
427.00,0.072
428.00,0.072
429.00,0.071
430.00,0.071
431.00,0.070
432.00,0.070
433.00,0.069
434.00,0.069
435.00,0.069
436.00,0.068
437.00,0.068
438.00,0.067
439.00,0.067
440.00,0.067
441.00,0.066
442.00,0.066
443.00,0.066
444.00,0.065
445.00,0.065
446.00,0.064
447.00,0.064
448.00,0.064
449.00,0.063
450.00,0.063
451.00,0.063
452.00,0.062
453.00,0.062
454.00,0.062
455.00,0.062
456.00,0.061
457.00,0.061
458.00,0.061
459.00,0.060
460.00,0.060
461.00,0.060
462.00,0.060
463.00,0.059
464.00,0.059
465.00,0.059
466.00,0.058
467.00,0.058
468.00,0.058
469.00,0.058
470.00,0.057
471.00,0.057
472.00,0.057
473.00,0.057
474.00,0.056
475.00,0.056
476.00,0.056
477.00,0.056
478.00,0.055
479.00,0.055
480.00,0.055
481.00,0.054
482.00,0.054
483.00,0.054
484.00,0.054
485.00,0.054
486.00,0.053
487.00,0.053
488.00,0.053
489.00,0.053
490.00,0.052
491.00,0.052
492.00,0.052
493.00,0.052
494.00,0.052
495.00,0.052
496.00,0.051
497.00,0.051
498.00,0.051
499.00,0.051
500.00,0.051
501.00,0.050
502.00,0.050
503.00,0.050
504.00,0.050
505.00,0.050
506.00,0.050
507.00,0.049
508.00,0.049
509.00,0.049
510.00,0.049
511.00,0.049
512.00,0.049
513.00,0.049
514.00,0.048
515.00,0.048
516.00,0.048
517.00,0.048
518.00,0.048
519.00,0.048
520.00,0.048
521.00,0.047
522.00,0.047
523.00,0.047
524.00,0.047
525.00,0.047
526.00,0.047
527.00,0.047
528.00,0.047
529.00,0.046
530.00,0.046
531.00,0.046
532.00,0.046
533.00,0.046
534.00,0.046
535.00,0.046
536.00,0.046
537.00,0.046
538.00,0.046
539.00,0.045
540.00,0.045
541.00,0.045
542.00,0.045
543.00,0.045
544.00,0.045
545.00,0.045
546.00,0.045
547.00,0.045
548.00,0.045
549.00,0.044
550.00,0.044
551.00,0.044
552.00,0.044
553.00,0.044
554.00,0.044
555.00,0.044
556.00,0.044
557.00,0.044
558.00,0.044
559.00,0.044
560.00,0.044
561.00,0.043
562.00,0.043
563.00,0.043
564.00,0.043
565.00,0.043
566.00,0.043
567.00,0.043
568.00,0.043
569.00,0.043
570.00,0.043
571.00,0.043
572.00,0.043
573.00,0.043
574.00,0.043
575.00,0.043
576.00,0.043
577.00,0.043
578.00,0.042
579.00,0.042
580.00,0.042
581.00,0.042
582.00,0.042
583.00,0.042
584.00,0.042
585.00,0.042
586.00,0.042
587.00,0.042
588.00,0.042
589.00,0.042
590.00,0.042
591.00,0.042
592.00,0.042
593.00,0.042
594.00,0.042
595.00,0.042
596.00,0.042
597.00,0.042
598.00,0.042
599.00,0.042
600.00,0.042
601.00,0.042
602.00,0.042
603.00,0.042
604.00,0.042
605.00,0.042
606.00,0.042
607.00,0.042
608.00,0.042
609.00,0.042
610.00,0.042
611.00,0.041
612.00,0.041
613.00,0.041
614.00,0.041
615.00,0.041
616.00,0.041
617.00,0.041
618.00,0.041
619.00,0.041
620.00,0.041
621.00,0.041
622.00,0.041
623.00,0.041
624.00,0.041
625.00,0.041
626.00,0.041
627.00,0.041
628.00,0.041
629.00,0.041
630.00,0.041
631.00,0.041
632.00,0.041
633.00,0.041
634.00,0.041
635.00,0.041
636.00,0.041
637.00,0.041
638.00,0.041
639.00,0.040
640.00,0.041
641.00,0.041
642.00,0.041
643.00,0.040
644.00,0.041
645.00,0.041
646.00,0.040
647.00,0.040
648.00,0.040
649.00,0.040
650.00,0.040
651.00,0.040
652.00,0.040
653.00,0.040
654.00,0.040
655.00,0.040
656.00,0.040
657.00,0.040
658.00,0.040
659.00,0.040
660.00,0.040
661.00,0.040
662.00,0.040
663.00,0.040
664.00,0.040
665.00,0.040
666.00,0.040
667.00,0.040
668.00,0.040
669.00,0.040
670.00,0.040
671.00,0.040
672.00,0.040
673.00,0.040
674.00,0.040
675.00,0.040
676.00,0.040
677.00,0.040
678.00,0.040
679.00,0.040
680.00,0.040
681.00,0.040
682.00,0.040
683.00,0.040
684.00,0.040
685.00,0.040
686.00,0.040
687.00,0.040
688.00,0.040
689.00,0.040
690.00,0.040
691.00,0.040
692.00,0.040
693.00,0.040
694.00,0.040
695.00,0.040
696.00,0.040
697.00,0.040
698.00,0.040
699.00,0.040
700.00,0.040
701.00,0.040
702.00,0.040
703.00,0.040
704.00,0.040
705.00,0.041
706.00,0.041
707.00,0.041
708.00,0.041
709.00,0.041
710.00,0.041
711.00,0.041
712.00,0.041
713.00,0.041
714.00,0.041
715.00,0.042
716.00,0.042
717.00,0.042
718.00,0.042
719.00,0.042
720.00,0.042
721.00,0.043
722.00,0.043
723.00,0.043
724.00,0.043
725.00,0.044
726.00,0.044
727.00,0.044
728.00,0.045
729.00,0.045
730.00,0.045
731.00,0.046
732.00,0.047
733.00,0.047
734.00,0.047
735.00,0.048
736.00,0.048
737.00,0.048
738.00,0.048
739.00,0.049
740.00,0.049
741.00,0.049
742.00,0.049
743.00,0.049
744.00,0.049
745.00,0.049
746.00,0.049
747.00,0.049
748.00,0.049
749.00,0.049
750.00,0.049
751.00,0.049
752.00,0.049
753.00,0.049
754.00,0.049
755.00,0.049
756.00,0.049
757.00,0.049
758.00,0.049
759.00,0.049
760.00,0.049
761.00,0.049
762.00,0.049
763.00,0.049
764.00,0.049
765.00,0.049
766.00,0.049
767.00,0.048
768.00,0.048
769.00,0.048
770.00,0.048
771.00,0.048
772.00,0.048
773.00,0.048
774.00,0.048
775.00,0.048
776.00,0.048
777.00,0.048
778.00,0.048
779.00,0.048
780.00,0.047
781.00,0.047
782.00,0.047
783.00,0.047
784.00,0.047
785.00,0.047
786.00,0.047
787.00,0.047
788.00,0.047
789.00,0.047
790.00,0.046
791.00,0.046
792.00,0.046
793.00,0.046
794.00,0.046
795.00,0.046
796.00,0.046
797.00,0.046
798.00,0.046
799.00,0.046
800.00,0.045
801.00,0.045
802.00,0.045
803.00,0.045
804.00,0.045
805.00,0.045
806.00,0.045
807.00,0.045
808.00,0.045
809.00,0.045
810.00,0.045
811.00,0.045
812.00,0.045
813.00,0.045
814.00,0.045
815.00,0.045
816.00,0.045
817.00,0.045
818.00,0.045
819.00,0.046
820.00,0.046
821.00,0.046
822.00,0.046
823.00,0.046
824.00,0.047
825.00,0.047
826.00,0.047
827.00,0.048
828.00,0.048
829.00,0.049
830.00,0.049
831.00,0.050
832.00,0.051
833.00,0.051
834.00,0.051
835.00,0.051
836.00,0.052
837.00,0.052
838.00,0.052
839.00,0.052
840.00,0.052
841.00,0.052
842.00,0.052
843.00,0.053
844.00,0.053
845.00,0.053
846.00,0.053
847.00,0.053
848.00,0.053
849.00,0.053
850.00,0.053
851.00,0.053
852.00,0.054
853.00,0.054
854.00,0.054
855.00,0.054
856.00,0.054
857.00,0.054
858.00,0.054
859.00,0.054
860.00,0.054
861.00,0.054
862.00,0.055
863.00,0.055
864.00,0.055
865.00,0.055
866.00,0.055
867.00,0.055
868.00,0.055
869.00,0.055
870.00,0.056
871.00,0.056
872.00,0.056
873.00,0.056
874.00,0.056
875.00,0.056
876.00,0.057
877.00,0.057
878.00,0.057
879.00,0.057
880.00,0.058
881.00,0.058
882.00,0.058
883.00,0.058
884.00,0.058
885.00,0.059
886.00,0.059
887.00,0.059
888.00,0.059
889.00,0.060
890.00,0.060
891.00,0.060
892.00,0.060
893.00,0.061
894.00,0.061
895.00,0.061
896.00,0.061
897.00,0.061
898.00,0.062
899.00,0.062
900.00,0.062
