"BeneluxMarginale100x - RawData"
"Wavelength nm.","Abs."
190.00,3.544
191.00,3.437
192.00,3.292
193.00,3.500
194.00,3.724
195.00,3.825
196.00,3.639
197.00,3.368
198.00,3.588
199.00,3.578
200.00,3.573
201.00,3.290
202.00,3.225
203.00,3.138
204.00,3.048
205.00,2.950
206.00,2.804
207.00,2.728
208.00,2.623
209.00,2.524
210.00,2.440
211.00,2.363
212.00,2.281
213.00,2.204
214.00,2.134
215.00,2.071
216.00,2.006
217.00,1.942
218.00,1.885
219.00,1.825
220.00,1.768
221.00,1.716
222.00,1.665
223.00,1.614
224.00,1.563
225.00,1.514
226.00,1.465
227.00,1.415
228.00,1.365
229.00,1.319
230.00,1.274
231.00,1.231
232.00,1.190
233.00,1.152
234.00,1.116
235.00,1.083
236.00,1.054
237.00,1.026
238.00,1.000
239.00,0.976
240.00,0.955
241.00,0.936
242.00,0.922
243.00,0.911
244.00,0.902
245.00,0.894
246.00,0.888
247.00,0.883
248.00,0.879
249.00,0.877
250.00,0.875
251.00,0.875
252.00,0.875
253.00,0.875
254.00,0.876
255.00,0.877
256.00,0.879
257.00,0.880
258.00,0.882
259.00,0.883
260.00,0.884
261.00,0.885
262.00,0.887
263.00,0.889
264.00,0.890
265.00,0.892
266.00,0.892
267.00,0.893
268.00,0.894
269.00,0.894
270.00,0.893
271.00,0.892
272.00,0.891
273.00,0.888
274.00,0.886
275.00,0.882
276.00,0.878
277.00,0.873
278.00,0.867
279.00,0.861
280.00,0.853
281.00,0.846
282.00,0.837
283.00,0.828
284.00,0.817
285.00,0.806
286.00,0.795
287.00,0.783
288.00,0.770
289.00,0.757
290.00,0.743
291.00,0.728
292.00,0.715
293.00,0.702
294.00,0.689
295.00,0.677
296.00,0.665
297.00,0.654
298.00,0.642
299.00,0.631
300.00,0.620
301.00,0.610
302.00,0.600
303.00,0.591
304.00,0.582
305.00,0.573
306.00,0.564
307.00,0.555
308.00,0.548
309.00,0.539
310.00,0.532
311.00,0.525
312.00,0.518
313.00,0.512
314.00,0.505
315.00,0.499
316.00,0.493
317.00,0.487
318.00,0.482
319.00,0.477
320.00,0.472
321.00,0.466
322.00,0.460
323.00,0.455
324.00,0.450
325.00,0.445
326.00,0.440
327.00,0.435
328.00,0.429
329.00,0.425
330.00,0.419
331.00,0.415
332.00,0.410
333.00,0.405
334.00,0.400
335.00,0.395
336.00,0.391
337.00,0.387
338.00,0.382
339.00,0.378
340.00,0.373
341.00,0.367
342.00,0.364
343.00,0.359
344.00,0.355
345.00,0.351
346.00,0.348
347.00,0.344
348.00,0.340
349.00,0.336
350.00,0.332
351.00,0.328
352.00,0.325
353.00,0.321
354.00,0.318
355.00,0.314
356.00,0.311
357.00,0.307
358.00,0.304
359.00,0.301
360.00,0.298
361.00,0.295
362.00,0.292
363.00,0.289
364.00,0.286
365.00,0.283
366.00,0.280
367.00,0.277
368.00,0.274
369.00,0.271
370.00,0.269
371.00,0.266
372.00,0.263
373.00,0.261
374.00,0.258
375.00,0.256
376.00,0.253
377.00,0.250
378.00,0.247
379.00,0.245
380.00,0.242
381.00,0.240
382.00,0.237
383.00,0.235
384.00,0.233
385.00,0.230
386.00,0.228
387.00,0.226
388.00,0.224
389.00,0.222
390.00,0.219
391.00,0.217
392.00,0.215
393.00,0.213
394.00,0.211
395.00,0.209
396.00,0.207
397.00,0.205
398.00,0.203
399.00,0.201
400.00,0.199
401.00,0.197
402.00,0.195
403.00,0.193
404.00,0.192
405.00,0.190
406.00,0.188
407.00,0.186
408.00,0.185
409.00,0.183
410.00,0.181
411.00,0.179
412.00,0.178
413.00,0.176
414.00,0.174
415.00,0.173
416.00,0.171
417.00,0.170
418.00,0.169
419.00,0.167
420.00,0.166
421.00,0.164
422.00,0.163
423.00,0.161
424.00,0.160
425.00,0.159
426.00,0.157
427.00,0.156
428.00,0.154
429.00,0.153
430.00,0.152
431.00,0.150
432.00,0.149
433.00,0.148
434.00,0.147
435.00,0.145
436.00,0.144
437.00,0.143
438.00,0.142
439.00,0.140
440.00,0.139
441.00,0.138
442.00,0.137
443.00,0.136
444.00,0.135
445.00,0.134
446.00,0.133
447.00,0.132
448.00,0.131
449.00,0.129
450.00,0.128
451.00,0.127
452.00,0.126
453.00,0.125
454.00,0.124
455.00,0.124
456.00,0.123
457.00,0.122
458.00,0.121
459.00,0.120
460.00,0.119
461.00,0.118
462.00,0.117
463.00,0.116
464.00,0.115
465.00,0.114
466.00,0.113
467.00,0.113
468.00,0.112
469.00,0.111
470.00,0.110
471.00,0.109
472.00,0.108
473.00,0.108
474.00,0.107
475.00,0.106
476.00,0.105
477.00,0.104
478.00,0.104
479.00,0.103
480.00,0.102
481.00,0.101
482.00,0.101
483.00,0.100
484.00,0.099
485.00,0.098
486.00,0.098
487.00,0.097
488.00,0.096
489.00,0.096
490.00,0.095
491.00,0.094
492.00,0.094
493.00,0.093
494.00,0.092
495.00,0.092
496.00,0.091
497.00,0.091
498.00,0.090
499.00,0.089
500.00,0.089
501.00,0.088
502.00,0.088
503.00,0.087
504.00,0.087
505.00,0.086
506.00,0.086
507.00,0.085
508.00,0.084
509.00,0.084
510.00,0.083
511.00,0.083
512.00,0.082
513.00,0.082
514.00,0.081
515.00,0.081
516.00,0.080
517.00,0.080
518.00,0.079
519.00,0.079
520.00,0.078
521.00,0.078
522.00,0.078
523.00,0.077
524.00,0.077
525.00,0.076
526.00,0.076
527.00,0.075
528.00,0.075
529.00,0.074
530.00,0.074
531.00,0.073
532.00,0.073
533.00,0.073
534.00,0.072
535.00,0.072
536.00,0.072
537.00,0.071
538.00,0.071
539.00,0.070
540.00,0.070
541.00,0.070
542.00,0.069
543.00,0.069
544.00,0.069
545.00,0.068
546.00,0.068
547.00,0.067
548.00,0.067
549.00,0.067
550.00,0.066
551.00,0.066
552.00,0.066
553.00,0.065
554.00,0.065
555.00,0.065
556.00,0.065
557.00,0.064
558.00,0.064
559.00,0.064
560.00,0.063
561.00,0.063
562.00,0.063
563.00,0.062
564.00,0.062
565.00,0.062
566.00,0.062
567.00,0.061
568.00,0.061
569.00,0.061
570.00,0.061
571.00,0.060
572.00,0.060
573.00,0.060
574.00,0.060
575.00,0.059
576.00,0.059
577.00,0.059
578.00,0.059
579.00,0.058
580.00,0.058
581.00,0.058
582.00,0.058
583.00,0.057
584.00,0.057
585.00,0.057
586.00,0.057
587.00,0.057
588.00,0.056
589.00,0.056
590.00,0.056
591.00,0.056
592.00,0.056
593.00,0.055
594.00,0.055
595.00,0.055
596.00,0.055
597.00,0.055
598.00,0.055
599.00,0.055
600.00,0.054
601.00,0.054
602.00,0.054
603.00,0.054
604.00,0.054
605.00,0.054
606.00,0.053
607.00,0.053
608.00,0.053
609.00,0.053
610.00,0.053
611.00,0.053
612.00,0.052
613.00,0.052
614.00,0.052
615.00,0.052
616.00,0.052
617.00,0.052
618.00,0.051
619.00,0.051
620.00,0.051
621.00,0.051
622.00,0.051
623.00,0.051
624.00,0.051
625.00,0.050
626.00,0.050
627.00,0.050
628.00,0.050
629.00,0.050
630.00,0.050
631.00,0.050
632.00,0.049
633.00,0.049
634.00,0.049
635.00,0.049
636.00,0.049
637.00,0.049
638.00,0.049
639.00,0.048
640.00,0.048
641.00,0.048
642.00,0.048
643.00,0.048
644.00,0.048
645.00,0.048
646.00,0.048
647.00,0.048
648.00,0.047
649.00,0.047
650.00,0.047
651.00,0.047
652.00,0.047
653.00,0.047
654.00,0.047
655.00,0.047
656.00,0.047
657.00,0.047
658.00,0.047
659.00,0.046
660.00,0.046
661.00,0.046
662.00,0.046
663.00,0.046
664.00,0.046
665.00,0.046
666.00,0.046
667.00,0.046
668.00,0.046
669.00,0.046
670.00,0.046
671.00,0.045
672.00,0.045
673.00,0.045
674.00,0.045
675.00,0.045
676.00,0.045
677.00,0.045
678.00,0.045
679.00,0.045
680.00,0.045
681.00,0.045
682.00,0.045
683.00,0.044
684.00,0.044
685.00,0.044
686.00,0.044
687.00,0.044
688.00,0.044
689.00,0.044
690.00,0.044
691.00,0.044
692.00,0.044
693.00,0.044
694.00,0.044
695.00,0.044
696.00,0.044
697.00,0.044
698.00,0.044
699.00,0.044
700.00,0.044
701.00,0.044
702.00,0.044
703.00,0.044
704.00,0.044
705.00,0.044
706.00,0.044
707.00,0.044
708.00,0.044
709.00,0.044
710.00,0.044
711.00,0.044
712.00,0.044
713.00,0.044
714.00,0.044
715.00,0.044
716.00,0.045
717.00,0.045
718.00,0.045
719.00,0.045
720.00,0.045
721.00,0.045
722.00,0.045
723.00,0.046
724.00,0.046
725.00,0.046
726.00,0.046
727.00,0.046
728.00,0.047
729.00,0.047
730.00,0.048
731.00,0.048
732.00,0.049
733.00,0.049
734.00,0.049
735.00,0.050
736.00,0.050
737.00,0.050
738.00,0.050
739.00,0.050
740.00,0.050
741.00,0.050
742.00,0.050
743.00,0.050
744.00,0.050
745.00,0.050
746.00,0.050
747.00,0.050
748.00,0.050
749.00,0.050
750.00,0.050
751.00,0.050
752.00,0.050
753.00,0.050
754.00,0.050
755.00,0.050
756.00,0.050
757.00,0.050
758.00,0.050
759.00,0.050
760.00,0.050
761.00,0.050
762.00,0.050
763.00,0.050
764.00,0.050
765.00,0.050
766.00,0.049
767.00,0.049
768.00,0.049
769.00,0.049
770.00,0.049
771.00,0.049
772.00,0.049
773.00,0.049
774.00,0.049
775.00,0.049
776.00,0.049
777.00,0.048
778.00,0.048
779.00,0.048
780.00,0.048
781.00,0.048
782.00,0.048
783.00,0.048
784.00,0.048
785.00,0.048
786.00,0.047
787.00,0.047
788.00,0.047
789.00,0.047
790.00,0.047
791.00,0.047
792.00,0.047
793.00,0.047
794.00,0.046
795.00,0.046
796.00,0.046
797.00,0.046
798.00,0.046
799.00,0.046
800.00,0.046
801.00,0.046
802.00,0.046
803.00,0.045
804.00,0.045
805.00,0.045
806.00,0.045
807.00,0.045
808.00,0.045
809.00,0.045
810.00,0.045
811.00,0.045
812.00,0.045
813.00,0.045
814.00,0.045
815.00,0.045
816.00,0.045
817.00,0.045
818.00,0.045
819.00,0.045
820.00,0.046
821.00,0.046
822.00,0.046
823.00,0.046
824.00,0.047
825.00,0.047
826.00,0.047
827.00,0.048
828.00,0.048
829.00,0.049
830.00,0.049
831.00,0.050
832.00,0.050
833.00,0.051
834.00,0.051
835.00,0.051
836.00,0.051
837.00,0.051
838.00,0.052
839.00,0.052
840.00,0.052
841.00,0.052
842.00,0.052
843.00,0.052
844.00,0.052
845.00,0.052
846.00,0.052
847.00,0.052
848.00,0.053
849.00,0.053
850.00,0.053
851.00,0.053
852.00,0.053
853.00,0.053
854.00,0.053
855.00,0.053
856.00,0.053
857.00,0.053
858.00,0.054
859.00,0.054
860.00,0.054
861.00,0.054
862.00,0.054
863.00,0.054
864.00,0.054
865.00,0.054
866.00,0.054
867.00,0.054
868.00,0.055
869.00,0.055
870.00,0.055
871.00,0.055
872.00,0.055
873.00,0.055
874.00,0.055
875.00,0.056
876.00,0.056
877.00,0.056
878.00,0.056
879.00,0.056
880.00,0.057
881.00,0.057
882.00,0.057
883.00,0.057
884.00,0.058
885.00,0.058
886.00,0.058
887.00,0.058
888.00,0.059
889.00,0.059
890.00,0.059
891.00,0.059
892.00,0.059
893.00,0.060
894.00,0.060
895.00,0.060
896.00,0.060
897.00,0.061
898.00,0.061
899.00,0.061
900.00,0.061
