"BeneluxCongo50x - RawData"
"Wavelength nm.","Abs."
190.00,3.223
191.00,3.513
192.00,3.599
193.00,3.361
194.00,3.720
195.00,3.794
196.00,3.685
197.00,3.866
198.00,3.839
199.00,3.669
200.00,3.673
201.00,3.749
202.00,3.938
203.00,3.777
204.00,3.833
205.00,3.834
206.00,3.860
207.00,3.747
208.00,3.803
209.00,3.921
210.00,3.828
211.00,3.907
212.00,3.668
213.00,3.467
214.00,3.311
215.00,3.261
216.00,3.169
217.00,2.972
218.00,2.875
219.00,2.738
220.00,2.620
221.00,2.491
222.00,2.378
223.00,2.265
224.00,2.146
225.00,2.033
226.00,1.919
227.00,1.805
228.00,1.696
229.00,1.595
230.00,1.499
231.00,1.415
232.00,1.339
233.00,1.271
234.00,1.213
235.00,1.164
236.00,1.121
237.00,1.086
238.00,1.056
239.00,1.032
240.00,1.012
241.00,0.998
242.00,0.988
243.00,0.981
244.00,0.977
245.00,0.975
246.00,0.975
247.00,0.977
248.00,0.980
249.00,0.985
250.00,0.991
251.00,0.998
252.00,1.005
253.00,1.012
254.00,1.019
255.00,1.027
256.00,1.033
257.00,1.040
258.00,1.044
259.00,1.046
260.00,1.049
261.00,1.051
262.00,1.053
263.00,1.054
264.00,1.054
265.00,1.054
266.00,1.052
267.00,1.051
268.00,1.048
269.00,1.043
270.00,1.035
271.00,1.024
272.00,1.013
273.00,1.000
274.00,0.985
275.00,0.970
276.00,0.954
277.00,0.937
278.00,0.918
279.00,0.899
280.00,0.879
281.00,0.858
282.00,0.836
283.00,0.812
284.00,0.788
285.00,0.762
286.00,0.738
287.00,0.715
288.00,0.691
289.00,0.666
290.00,0.640
291.00,0.615
292.00,0.594
293.00,0.574
294.00,0.558
295.00,0.544
296.00,0.531
297.00,0.521
298.00,0.511
299.00,0.501
300.00,0.493
301.00,0.485
302.00,0.479
303.00,0.473
304.00,0.467
305.00,0.462
306.00,0.456
307.00,0.451
308.00,0.446
309.00,0.442
310.00,0.438
311.00,0.433
312.00,0.429
313.00,0.425
314.00,0.421
315.00,0.417
316.00,0.412
317.00,0.408
318.00,0.404
319.00,0.399
320.00,0.395
321.00,0.390
322.00,0.385
323.00,0.379
324.00,0.374
325.00,0.368
326.00,0.362
327.00,0.356
328.00,0.350
329.00,0.344
330.00,0.337
331.00,0.330
332.00,0.324
333.00,0.317
334.00,0.310
335.00,0.303
336.00,0.297
337.00,0.290
338.00,0.283
339.00,0.277
340.00,0.270
341.00,0.262
342.00,0.255
343.00,0.249
344.00,0.243
345.00,0.237
346.00,0.231
347.00,0.226
348.00,0.220
349.00,0.215
350.00,0.210
351.00,0.205
352.00,0.200
353.00,0.195
354.00,0.190
355.00,0.186
356.00,0.182
357.00,0.177
358.00,0.174
359.00,0.170
360.00,0.166
361.00,0.163
362.00,0.159
363.00,0.156
364.00,0.153
365.00,0.150
366.00,0.147
367.00,0.144
368.00,0.142
369.00,0.139
370.00,0.136
371.00,0.134
372.00,0.132
373.00,0.129
374.00,0.127
375.00,0.125
376.00,0.122
377.00,0.120
378.00,0.118
379.00,0.116
380.00,0.114
381.00,0.112
382.00,0.110
383.00,0.108
384.00,0.106
385.00,0.104
386.00,0.103
387.00,0.101
388.00,0.099
389.00,0.098
390.00,0.096
391.00,0.095
392.00,0.093
393.00,0.092
394.00,0.091
395.00,0.089
396.00,0.088
397.00,0.087
398.00,0.086
399.00,0.085
400.00,0.084
401.00,0.083
402.00,0.082
403.00,0.081
404.00,0.080
405.00,0.079
406.00,0.078
407.00,0.078
408.00,0.077
409.00,0.076
410.00,0.075
411.00,0.075
412.00,0.074
413.00,0.073
414.00,0.073
415.00,0.072
416.00,0.072
417.00,0.071
418.00,0.071
419.00,0.071
420.00,0.070
421.00,0.070
422.00,0.069
423.00,0.069
424.00,0.069
425.00,0.068
426.00,0.068
427.00,0.067
428.00,0.067
429.00,0.067
430.00,0.066
431.00,0.066
432.00,0.066
433.00,0.065
434.00,0.065
435.00,0.065
436.00,0.064
437.00,0.064
438.00,0.064
439.00,0.063
440.00,0.063
441.00,0.063
442.00,0.063
443.00,0.062
444.00,0.062
445.00,0.062
446.00,0.062
447.00,0.061
448.00,0.061
449.00,0.061
450.00,0.061
451.00,0.060
452.00,0.060
453.00,0.060
454.00,0.060
455.00,0.060
456.00,0.060
457.00,0.059
458.00,0.059
459.00,0.059
460.00,0.059
461.00,0.059
462.00,0.058
463.00,0.058
464.00,0.058
465.00,0.058
466.00,0.058
467.00,0.057
468.00,0.057
469.00,0.057
470.00,0.057
471.00,0.057
472.00,0.057
473.00,0.056
474.00,0.056
475.00,0.056
476.00,0.056
477.00,0.056
478.00,0.055
479.00,0.055
480.00,0.055
481.00,0.055
482.00,0.055
483.00,0.055
484.00,0.054
485.00,0.054
486.00,0.054
487.00,0.054
488.00,0.054
489.00,0.054
490.00,0.053
491.00,0.053
492.00,0.053
493.00,0.053
494.00,0.053
495.00,0.053
496.00,0.053
497.00,0.053
498.00,0.052
499.00,0.052
500.00,0.052
501.00,0.052
502.00,0.052
503.00,0.052
504.00,0.052
505.00,0.052
506.00,0.052
507.00,0.051
508.00,0.051
509.00,0.051
510.00,0.051
511.00,0.051
512.00,0.051
513.00,0.051
514.00,0.051
515.00,0.051
516.00,0.051
517.00,0.050
518.00,0.050
519.00,0.050
520.00,0.050
521.00,0.050
522.00,0.050
523.00,0.050
524.00,0.050
525.00,0.050
526.00,0.050
527.00,0.049
528.00,0.049
529.00,0.049
530.00,0.049
531.00,0.049
532.00,0.049
533.00,0.049
534.00,0.049
535.00,0.049
536.00,0.049
537.00,0.049
538.00,0.048
539.00,0.048
540.00,0.048
541.00,0.048
542.00,0.048
543.00,0.048
544.00,0.048
545.00,0.048
546.00,0.048
547.00,0.048
548.00,0.048
549.00,0.048
550.00,0.048
551.00,0.048
552.00,0.047
553.00,0.047
554.00,0.047
555.00,0.047
556.00,0.047
557.00,0.047
558.00,0.047
559.00,0.047
560.00,0.047
561.00,0.047
562.00,0.047
563.00,0.047
564.00,0.047
565.00,0.047
566.00,0.047
567.00,0.047
568.00,0.046
569.00,0.046
570.00,0.046
571.00,0.046
572.00,0.046
573.00,0.046
574.00,0.046
575.00,0.046
576.00,0.046
577.00,0.046
578.00,0.046
579.00,0.046
580.00,0.046
581.00,0.046
582.00,0.046
583.00,0.046
584.00,0.046
585.00,0.045
586.00,0.045
587.00,0.045
588.00,0.045
589.00,0.045
590.00,0.045
591.00,0.045
592.00,0.045
593.00,0.045
594.00,0.045
595.00,0.045
596.00,0.045
597.00,0.045
598.00,0.045
599.00,0.045
600.00,0.045
601.00,0.045
602.00,0.045
603.00,0.045
604.00,0.045
605.00,0.045
606.00,0.045
607.00,0.045
608.00,0.045
609.00,0.045
610.00,0.045
611.00,0.045
612.00,0.045
613.00,0.045
614.00,0.045
615.00,0.045
616.00,0.045
617.00,0.045
618.00,0.044
619.00,0.044
620.00,0.044
621.00,0.044
622.00,0.044
623.00,0.044
624.00,0.044
625.00,0.044
626.00,0.044
627.00,0.044
628.00,0.044
629.00,0.044
630.00,0.044
631.00,0.044
632.00,0.044
633.00,0.044
634.00,0.044
635.00,0.044
636.00,0.044
637.00,0.044
638.00,0.044
639.00,0.044
640.00,0.044
641.00,0.044
642.00,0.044
643.00,0.043
644.00,0.043
645.00,0.043
646.00,0.043
647.00,0.043
648.00,0.043
649.00,0.043
650.00,0.043
651.00,0.043
652.00,0.043
653.00,0.043
654.00,0.043
655.00,0.043
656.00,0.043
657.00,0.043
658.00,0.043
659.00,0.043
660.00,0.043
661.00,0.043
662.00,0.043
663.00,0.043
664.00,0.043
665.00,0.043
666.00,0.043
667.00,0.043
668.00,0.043
669.00,0.043
670.00,0.043
671.00,0.043
672.00,0.043
673.00,0.043
674.00,0.043
675.00,0.043
676.00,0.043
677.00,0.043
678.00,0.043
679.00,0.043
680.00,0.043
681.00,0.043
682.00,0.043
683.00,0.043
684.00,0.043
685.00,0.043
686.00,0.043
687.00,0.043
688.00,0.043
689.00,0.043
690.00,0.043
691.00,0.043
692.00,0.043
693.00,0.043
694.00,0.043
695.00,0.043
696.00,0.043
697.00,0.043
698.00,0.043
699.00,0.043
700.00,0.043
701.00,0.043
702.00,0.043
703.00,0.043
704.00,0.043
705.00,0.043
706.00,0.043
707.00,0.043
708.00,0.043
709.00,0.043
710.00,0.043
711.00,0.043
712.00,0.044
713.00,0.044
714.00,0.044
715.00,0.044
716.00,0.044
717.00,0.044
718.00,0.044
719.00,0.044
720.00,0.045
721.00,0.045
722.00,0.045
723.00,0.045
724.00,0.046
725.00,0.046
726.00,0.046
727.00,0.046
728.00,0.047
729.00,0.047
730.00,0.048
731.00,0.048
732.00,0.049
733.00,0.049
734.00,0.050
735.00,0.050
736.00,0.050
737.00,0.051
738.00,0.051
739.00,0.051
740.00,0.051
741.00,0.051
742.00,0.051
743.00,0.051
744.00,0.051
745.00,0.051
746.00,0.051
747.00,0.051
748.00,0.051
749.00,0.051
750.00,0.051
751.00,0.051
752.00,0.051
753.00,0.051
754.00,0.051
755.00,0.051
756.00,0.051
757.00,0.051
758.00,0.051
759.00,0.051
760.00,0.051
761.00,0.051
762.00,0.051
763.00,0.050
764.00,0.050
765.00,0.050
766.00,0.050
767.00,0.050
768.00,0.050
769.00,0.050
770.00,0.050
771.00,0.050
772.00,0.050
773.00,0.050
774.00,0.050
775.00,0.050
776.00,0.050
777.00,0.050
778.00,0.049
779.00,0.049
780.00,0.049
781.00,0.049
782.00,0.049
783.00,0.049
784.00,0.049
785.00,0.049
786.00,0.049
787.00,0.049
788.00,0.048
789.00,0.048
790.00,0.048
791.00,0.048
792.00,0.048
793.00,0.048
794.00,0.048
795.00,0.048
796.00,0.047
797.00,0.047
798.00,0.047
799.00,0.047
800.00,0.047
801.00,0.047
802.00,0.047
803.00,0.047
804.00,0.047
805.00,0.047
806.00,0.047
807.00,0.047
808.00,0.047
809.00,0.047
810.00,0.047
811.00,0.047
812.00,0.047
813.00,0.047
814.00,0.047
815.00,0.047
816.00,0.047
817.00,0.047
818.00,0.047
819.00,0.047
820.00,0.048
821.00,0.048
822.00,0.048
823.00,0.048
824.00,0.049
825.00,0.049
826.00,0.049
827.00,0.050
828.00,0.050
829.00,0.051
830.00,0.051
831.00,0.052
832.00,0.052
833.00,0.053
834.00,0.053
835.00,0.053
836.00,0.054
837.00,0.054
838.00,0.054
839.00,0.054
840.00,0.054
841.00,0.054
842.00,0.054
843.00,0.054
844.00,0.055
845.00,0.055
846.00,0.055
847.00,0.055
848.00,0.055
849.00,0.055
850.00,0.055
851.00,0.055
852.00,0.056
853.00,0.056
854.00,0.056
855.00,0.056
856.00,0.056
857.00,0.056
858.00,0.056
859.00,0.056
860.00,0.056
861.00,0.056
862.00,0.057
863.00,0.057
864.00,0.057
865.00,0.057
866.00,0.057
867.00,0.057
868.00,0.057
869.00,0.057
870.00,0.058
871.00,0.058
872.00,0.058
873.00,0.058
874.00,0.058
875.00,0.059
876.00,0.059
877.00,0.059
878.00,0.059
879.00,0.059
880.00,0.060
881.00,0.060
882.00,0.060
883.00,0.060
884.00,0.061
885.00,0.061
886.00,0.061
887.00,0.061
888.00,0.062
889.00,0.062
890.00,0.062
891.00,0.062
892.00,0.063
893.00,0.063
894.00,0.063
895.00,0.063
896.00,0.064
897.00,0.064
898.00,0.064
899.00,0.064
900.00,0.064
