"berliner_weisse_50x - RawData"
"Wavelength nm.","Abs."
190.00,3.399
191.00,3.555
192.00,3.358
193.00,3.735
194.00,3.611
195.00,3.799
196.00,3.525
197.00,3.620
198.00,3.680
199.00,3.581
200.00,3.528
201.00,3.786
202.00,3.698
203.00,3.740
204.00,3.539
205.00,3.598
206.00,3.395
207.00,3.345
208.00,3.241
209.00,3.083
210.00,2.968
211.00,2.833
212.00,2.703
213.00,2.602
214.00,2.472
215.00,2.364
216.00,2.260
217.00,2.160
218.00,2.057
219.00,1.952
220.00,1.853
221.00,1.761
222.00,1.672
223.00,1.584
224.00,1.495
225.00,1.409
226.00,1.322
227.00,1.232
228.00,1.146
229.00,1.065
230.00,0.989
231.00,0.920
232.00,0.858
233.00,0.802
234.00,0.754
235.00,0.713
236.00,0.677
237.00,0.646
238.00,0.620
239.00,0.599
240.00,0.581
241.00,0.566
242.00,0.557
243.00,0.550
244.00,0.546
245.00,0.544
246.00,0.543
247.00,0.544
248.00,0.545
249.00,0.548
250.00,0.551
251.00,0.555
252.00,0.559
253.00,0.563
254.00,0.568
255.00,0.572
256.00,0.577
257.00,0.581
258.00,0.584
259.00,0.587
260.00,0.590
261.00,0.592
262.00,0.594
263.00,0.597
264.00,0.599
265.00,0.600
266.00,0.601
267.00,0.601
268.00,0.600
269.00,0.598
270.00,0.596
271.00,0.594
272.00,0.590
273.00,0.586
274.00,0.581
275.00,0.575
276.00,0.568
277.00,0.561
278.00,0.552
279.00,0.544
280.00,0.534
281.00,0.525
282.00,0.514
283.00,0.502
284.00,0.490
285.00,0.476
286.00,0.463
287.00,0.451
288.00,0.439
289.00,0.426
290.00,0.411
291.00,0.397
292.00,0.384
293.00,0.373
294.00,0.362
295.00,0.353
296.00,0.344
297.00,0.337
298.00,0.329
299.00,0.322
300.00,0.315
301.00,0.308
302.00,0.302
303.00,0.297
304.00,0.292
305.00,0.287
306.00,0.282
307.00,0.277
308.00,0.273
309.00,0.269
310.00,0.265
311.00,0.261
312.00,0.258
313.00,0.255
314.00,0.252
315.00,0.249
316.00,0.246
317.00,0.243
318.00,0.239
319.00,0.237
320.00,0.233
321.00,0.230
322.00,0.227
323.00,0.224
324.00,0.221
325.00,0.217
326.00,0.214
327.00,0.211
328.00,0.207
329.00,0.204
330.00,0.200
331.00,0.196
332.00,0.193
333.00,0.189
334.00,0.185
335.00,0.181
336.00,0.178
337.00,0.175
338.00,0.171
339.00,0.167
340.00,0.164
341.00,0.159
342.00,0.155
343.00,0.151
344.00,0.148
345.00,0.144
346.00,0.141
347.00,0.138
348.00,0.135
349.00,0.132
350.00,0.128
351.00,0.125
352.00,0.122
353.00,0.120
354.00,0.117
355.00,0.115
356.00,0.112
357.00,0.109
358.00,0.107
359.00,0.105
360.00,0.103
361.00,0.100
362.00,0.098
363.00,0.096
364.00,0.095
365.00,0.093
366.00,0.091
367.00,0.090
368.00,0.088
369.00,0.087
370.00,0.085
371.00,0.084
372.00,0.082
373.00,0.081
374.00,0.080
375.00,0.079
376.00,0.077
377.00,0.076
378.00,0.076
379.00,0.075
380.00,0.073
381.00,0.072
382.00,0.072
383.00,0.071
384.00,0.070
385.00,0.069
386.00,0.068
387.00,0.068
388.00,0.067
389.00,0.066
390.00,0.065
391.00,0.065
392.00,0.064
393.00,0.064
394.00,0.063
395.00,0.062
396.00,0.062
397.00,0.062
398.00,0.061
399.00,0.061
400.00,0.060
401.00,0.060
402.00,0.059
403.00,0.059
404.00,0.058
405.00,0.058
406.00,0.058
407.00,0.057
408.00,0.057
409.00,0.057
410.00,0.056
411.00,0.056
412.00,0.055
413.00,0.055
414.00,0.055
415.00,0.055
416.00,0.054
417.00,0.054
418.00,0.054
419.00,0.054
420.00,0.054
421.00,0.053
422.00,0.053
423.00,0.053
424.00,0.052
425.00,0.052
426.00,0.052
427.00,0.052
428.00,0.051
429.00,0.051
430.00,0.051
431.00,0.051
432.00,0.050
433.00,0.050
434.00,0.050
435.00,0.050
436.00,0.050
437.00,0.050
438.00,0.049
439.00,0.049
440.00,0.049
441.00,0.049
442.00,0.049
443.00,0.049
444.00,0.048
445.00,0.048
446.00,0.048
447.00,0.048
448.00,0.048
449.00,0.048
450.00,0.047
451.00,0.047
452.00,0.047
453.00,0.047
454.00,0.047
455.00,0.047
456.00,0.047
457.00,0.047
458.00,0.046
459.00,0.046
460.00,0.046
461.00,0.046
462.00,0.046
463.00,0.046
464.00,0.046
465.00,0.046
466.00,0.046
467.00,0.045
468.00,0.045
469.00,0.045
470.00,0.045
471.00,0.045
472.00,0.045
473.00,0.045
474.00,0.045
475.00,0.044
476.00,0.044
477.00,0.044
478.00,0.044
479.00,0.044
480.00,0.044
481.00,0.044
482.00,0.044
483.00,0.044
484.00,0.044
485.00,0.043
486.00,0.043
487.00,0.043
488.00,0.043
489.00,0.043
490.00,0.043
491.00,0.043
492.00,0.043
493.00,0.043
494.00,0.042
495.00,0.042
496.00,0.042
497.00,0.042
498.00,0.042
499.00,0.042
500.00,0.042
501.00,0.042
502.00,0.042
503.00,0.042
504.00,0.042
505.00,0.042
506.00,0.042
507.00,0.042
508.00,0.041
509.00,0.041
510.00,0.041
511.00,0.041
512.00,0.041
513.00,0.041
514.00,0.041
515.00,0.041
516.00,0.041
517.00,0.041
518.00,0.041
519.00,0.041
520.00,0.041
521.00,0.041
522.00,0.041
523.00,0.041
524.00,0.041
525.00,0.040
526.00,0.040
527.00,0.040
528.00,0.040
529.00,0.040
530.00,0.040
531.00,0.040
532.00,0.040
533.00,0.040
534.00,0.040
535.00,0.040
536.00,0.040
537.00,0.040
538.00,0.040
539.00,0.040
540.00,0.040
541.00,0.040
542.00,0.040
543.00,0.040
544.00,0.039
545.00,0.039
546.00,0.039
547.00,0.039
548.00,0.039
549.00,0.039
550.00,0.039
551.00,0.039
552.00,0.039
553.00,0.039
554.00,0.039
555.00,0.039
556.00,0.039
557.00,0.039
558.00,0.039
559.00,0.039
560.00,0.039
561.00,0.039
562.00,0.039
563.00,0.039
564.00,0.039
565.00,0.039
566.00,0.039
567.00,0.039
568.00,0.039
569.00,0.038
570.00,0.038
571.00,0.038
572.00,0.038
573.00,0.038
574.00,0.038
575.00,0.038
576.00,0.038
577.00,0.038
578.00,0.038
579.00,0.038
580.00,0.038
581.00,0.038
582.00,0.038
583.00,0.038
584.00,0.038
585.00,0.038
586.00,0.038
587.00,0.038
588.00,0.038
589.00,0.038
590.00,0.038
591.00,0.038
592.00,0.038
593.00,0.038
594.00,0.038
595.00,0.038
596.00,0.038
597.00,0.038
598.00,0.038
599.00,0.038
600.00,0.038
601.00,0.038
602.00,0.038
603.00,0.038
604.00,0.038
605.00,0.038
606.00,0.038
607.00,0.038
608.00,0.038
609.00,0.038
610.00,0.038
611.00,0.038
612.00,0.038
613.00,0.038
614.00,0.038
615.00,0.038
616.00,0.038
617.00,0.038
618.00,0.038
619.00,0.038
620.00,0.038
621.00,0.038
622.00,0.038
623.00,0.038
624.00,0.038
625.00,0.038
626.00,0.038
627.00,0.038
628.00,0.038
629.00,0.037
630.00,0.037
631.00,0.038
632.00,0.038
633.00,0.038
634.00,0.037
635.00,0.037
636.00,0.037
637.00,0.037
638.00,0.037
639.00,0.037
640.00,0.037
641.00,0.037
642.00,0.037
643.00,0.037
644.00,0.037
645.00,0.037
646.00,0.037
647.00,0.037
648.00,0.037
649.00,0.037
650.00,0.037
651.00,0.037
652.00,0.037
653.00,0.037
654.00,0.037
655.00,0.037
656.00,0.037
657.00,0.037
658.00,0.037
659.00,0.037
660.00,0.037
661.00,0.037
662.00,0.037
663.00,0.037
664.00,0.037
665.00,0.037
666.00,0.037
667.00,0.037
668.00,0.037
669.00,0.037
670.00,0.037
671.00,0.037
672.00,0.037
673.00,0.037
674.00,0.037
675.00,0.037
676.00,0.037
677.00,0.037
678.00,0.037
679.00,0.037
680.00,0.037
681.00,0.037
682.00,0.037
683.00,0.037
684.00,0.037
685.00,0.037
686.00,0.037
687.00,0.037
688.00,0.037
689.00,0.037
690.00,0.037
691.00,0.037
692.00,0.037
693.00,0.037
694.00,0.037
695.00,0.037
696.00,0.037
697.00,0.038
698.00,0.037
699.00,0.038
700.00,0.038
701.00,0.038
702.00,0.038
703.00,0.038
704.00,0.038
705.00,0.038
706.00,0.038
707.00,0.038
708.00,0.038
709.00,0.038
710.00,0.038
711.00,0.038
712.00,0.039
713.00,0.039
714.00,0.039
715.00,0.039
716.00,0.039
717.00,0.039
718.00,0.040
719.00,0.040
720.00,0.040
721.00,0.040
722.00,0.040
723.00,0.041
724.00,0.041
725.00,0.041
726.00,0.041
727.00,0.042
728.00,0.042
729.00,0.043
730.00,0.043
731.00,0.044
732.00,0.044
733.00,0.044
734.00,0.045
735.00,0.045
736.00,0.046
737.00,0.046
738.00,0.046
739.00,0.046
740.00,0.046
741.00,0.046
742.00,0.046
743.00,0.046
744.00,0.046
745.00,0.046
746.00,0.046
747.00,0.046
748.00,0.046
749.00,0.046
750.00,0.046
751.00,0.046
752.00,0.047
753.00,0.046
754.00,0.046
755.00,0.047
756.00,0.046
757.00,0.046
758.00,0.046
759.00,0.046
760.00,0.047
761.00,0.046
762.00,0.046
763.00,0.046
764.00,0.046
765.00,0.046
766.00,0.046
767.00,0.046
768.00,0.046
769.00,0.046
770.00,0.046
771.00,0.046
772.00,0.046
773.00,0.046
774.00,0.046
775.00,0.046
776.00,0.046
777.00,0.046
778.00,0.046
779.00,0.045
780.00,0.045
781.00,0.045
782.00,0.045
783.00,0.045
784.00,0.045
785.00,0.045
786.00,0.045
787.00,0.045
788.00,0.045
789.00,0.045
790.00,0.044
791.00,0.044
792.00,0.044
793.00,0.044
794.00,0.044
795.00,0.044
796.00,0.044
797.00,0.044
798.00,0.044
799.00,0.044
800.00,0.043
801.00,0.043
802.00,0.043
803.00,0.043
804.00,0.043
805.00,0.043
806.00,0.043
807.00,0.043
808.00,0.043
809.00,0.043
810.00,0.043
811.00,0.043
812.00,0.043
813.00,0.043
814.00,0.043
815.00,0.043
816.00,0.043
817.00,0.043
818.00,0.044
819.00,0.044
820.00,0.044
821.00,0.044
822.00,0.044
823.00,0.044
824.00,0.045
825.00,0.045
826.00,0.046
827.00,0.046
828.00,0.047
829.00,0.047
830.00,0.048
831.00,0.048
832.00,0.049
833.00,0.049
834.00,0.049
835.00,0.050
836.00,0.050
837.00,0.050
838.00,0.050
839.00,0.050
840.00,0.050
841.00,0.051
842.00,0.051
843.00,0.051
844.00,0.051
845.00,0.051
846.00,0.051
847.00,0.051
848.00,0.051
849.00,0.052
850.00,0.052
851.00,0.052
852.00,0.052
853.00,0.052
854.00,0.052
855.00,0.052
856.00,0.052
857.00,0.053
858.00,0.053
859.00,0.053
860.00,0.053
861.00,0.053
862.00,0.053
863.00,0.053
864.00,0.053
865.00,0.053
866.00,0.054
867.00,0.054
868.00,0.054
869.00,0.054
870.00,0.054
871.00,0.054
872.00,0.055
873.00,0.055
874.00,0.055
875.00,0.055
876.00,0.055
877.00,0.056
878.00,0.056
879.00,0.056
880.00,0.056
881.00,0.057
882.00,0.057
883.00,0.057
884.00,0.057
885.00,0.058
886.00,0.058
887.00,0.058
888.00,0.058
889.00,0.059
890.00,0.059
891.00,0.059
892.00,0.059
893.00,0.060
894.00,0.060
895.00,0.060
896.00,0.060
897.00,0.060
898.00,0.061
899.00,0.061
900.00,0.061
