"BGHanami50x - RawData"
"Wavelength nm.","Abs."
190.00,2.725
191.00,2.689
192.00,2.745
193.00,2.799
194.00,2.958
195.00,3.058
196.00,3.102
197.00,3.151
198.00,3.141
199.00,3.152
200.00,3.132
201.00,3.231
202.00,3.176
203.00,3.218
204.00,3.141
205.00,3.055
206.00,3.042
207.00,2.974
208.00,2.912
209.00,2.808
210.00,2.702
211.00,2.599
212.00,2.490
213.00,2.379
214.00,2.277
215.00,2.178
216.00,2.079
217.00,1.986
218.00,1.892
219.00,1.800
220.00,1.712
221.00,1.629
222.00,1.550
223.00,1.474
224.00,1.396
225.00,1.323
226.00,1.251
227.00,1.177
228.00,1.105
229.00,1.038
230.00,0.975
231.00,0.918
232.00,0.867
233.00,0.823
234.00,0.785
235.00,0.752
236.00,0.724
237.00,0.700
238.00,0.680
239.00,0.663
240.00,0.650
241.00,0.639
242.00,0.632
243.00,0.626
244.00,0.623
245.00,0.621
246.00,0.621
247.00,0.621
248.00,0.623
249.00,0.625
250.00,0.628
251.00,0.632
252.00,0.635
253.00,0.639
254.00,0.643
255.00,0.647
256.00,0.650
257.00,0.653
258.00,0.654
259.00,0.655
260.00,0.655
261.00,0.656
262.00,0.656
263.00,0.657
264.00,0.657
265.00,0.657
266.00,0.656
267.00,0.655
268.00,0.653
269.00,0.649
270.00,0.645
271.00,0.639
272.00,0.634
273.00,0.627
274.00,0.619
275.00,0.610
276.00,0.601
277.00,0.591
278.00,0.580
279.00,0.569
280.00,0.557
281.00,0.545
282.00,0.532
283.00,0.518
284.00,0.503
285.00,0.487
286.00,0.472
287.00,0.457
288.00,0.442
289.00,0.427
290.00,0.411
291.00,0.395
292.00,0.381
293.00,0.368
294.00,0.358
295.00,0.348
296.00,0.339
297.00,0.331
298.00,0.324
299.00,0.317
300.00,0.310
301.00,0.304
302.00,0.299
303.00,0.295
304.00,0.291
305.00,0.287
306.00,0.284
307.00,0.280
308.00,0.277
309.00,0.275
310.00,0.273
311.00,0.270
312.00,0.268
313.00,0.266
314.00,0.264
315.00,0.262
316.00,0.260
317.00,0.258
318.00,0.256
319.00,0.254
320.00,0.252
321.00,0.250
322.00,0.247
323.00,0.245
324.00,0.242
325.00,0.239
326.00,0.236
327.00,0.233
328.00,0.229
329.00,0.225
330.00,0.222
331.00,0.218
332.00,0.213
333.00,0.209
334.00,0.205
335.00,0.201
336.00,0.197
337.00,0.193
338.00,0.188
339.00,0.184
340.00,0.180
341.00,0.174
342.00,0.170
343.00,0.165
344.00,0.161
345.00,0.156
346.00,0.153
347.00,0.149
348.00,0.145
349.00,0.141
350.00,0.137
351.00,0.133
352.00,0.130
353.00,0.127
354.00,0.123
355.00,0.120
356.00,0.117
357.00,0.114
358.00,0.111
359.00,0.109
360.00,0.106
361.00,0.103
362.00,0.101
363.00,0.099
364.00,0.097
365.00,0.095
366.00,0.093
367.00,0.091
368.00,0.090
369.00,0.088
370.00,0.086
371.00,0.085
372.00,0.083
373.00,0.082
374.00,0.081
375.00,0.079
376.00,0.078
377.00,0.077
378.00,0.076
379.00,0.074
380.00,0.073
381.00,0.072
382.00,0.071
383.00,0.070
384.00,0.070
385.00,0.069
386.00,0.068
387.00,0.067
388.00,0.067
389.00,0.066
390.00,0.065
391.00,0.065
392.00,0.064
393.00,0.064
394.00,0.063
395.00,0.063
396.00,0.062
397.00,0.062
398.00,0.061
399.00,0.061
400.00,0.061
401.00,0.060
402.00,0.060
403.00,0.060
404.00,0.059
405.00,0.059
406.00,0.059
407.00,0.059
408.00,0.058
409.00,0.058
410.00,0.058
411.00,0.058
412.00,0.058
413.00,0.057
414.00,0.057
415.00,0.057
416.00,0.057
417.00,0.057
418.00,0.057
419.00,0.057
420.00,0.057
421.00,0.057
422.00,0.057
423.00,0.057
424.00,0.057
425.00,0.057
426.00,0.056
427.00,0.056
428.00,0.056
429.00,0.056
430.00,0.056
431.00,0.056
432.00,0.056
433.00,0.056
434.00,0.056
435.00,0.056
436.00,0.056
437.00,0.056
438.00,0.056
439.00,0.056
440.00,0.056
441.00,0.056
442.00,0.056
443.00,0.056
444.00,0.056
445.00,0.056
446.00,0.056
447.00,0.056
448.00,0.056
449.00,0.056
450.00,0.056
451.00,0.056
452.00,0.056
453.00,0.056
454.00,0.056
455.00,0.056
456.00,0.056
457.00,0.056
458.00,0.056
459.00,0.056
460.00,0.056
461.00,0.056
462.00,0.056
463.00,0.056
464.00,0.056
465.00,0.056
466.00,0.056
467.00,0.056
468.00,0.056
469.00,0.056
470.00,0.056
471.00,0.056
472.00,0.056
473.00,0.057
474.00,0.057
475.00,0.057
476.00,0.057
477.00,0.057
478.00,0.057
479.00,0.057
480.00,0.057
481.00,0.057
482.00,0.057
483.00,0.057
484.00,0.057
485.00,0.057
486.00,0.058
487.00,0.058
488.00,0.058
489.00,0.058
490.00,0.058
491.00,0.058
492.00,0.058
493.00,0.058
494.00,0.058
495.00,0.058
496.00,0.058
497.00,0.058
498.00,0.058
499.00,0.058
500.00,0.058
501.00,0.058
502.00,0.058
503.00,0.058
504.00,0.058
505.00,0.058
506.00,0.058
507.00,0.058
508.00,0.058
509.00,0.058
510.00,0.058
511.00,0.058
512.00,0.058
513.00,0.057
514.00,0.057
515.00,0.057
516.00,0.057
517.00,0.057
518.00,0.056
519.00,0.056
520.00,0.056
521.00,0.056
522.00,0.055
523.00,0.055
524.00,0.055
525.00,0.055
526.00,0.055
527.00,0.054
528.00,0.054
529.00,0.054
530.00,0.054
531.00,0.053
532.00,0.053
533.00,0.053
534.00,0.053
535.00,0.053
536.00,0.053
537.00,0.052
538.00,0.052
539.00,0.052
540.00,0.051
541.00,0.051
542.00,0.051
543.00,0.051
544.00,0.051
545.00,0.050
546.00,0.050
547.00,0.050
548.00,0.050
549.00,0.050
550.00,0.049
551.00,0.049
552.00,0.049
553.00,0.049
554.00,0.049
555.00,0.049
556.00,0.048
557.00,0.048
558.00,0.048
559.00,0.048
560.00,0.048
561.00,0.048
562.00,0.048
563.00,0.047
564.00,0.047
565.00,0.047
566.00,0.047
567.00,0.047
568.00,0.047
569.00,0.047
570.00,0.046
571.00,0.046
572.00,0.046
573.00,0.046
574.00,0.046
575.00,0.046
576.00,0.046
577.00,0.046
578.00,0.046
579.00,0.046
580.00,0.045
581.00,0.045
582.00,0.045
583.00,0.045
584.00,0.045
585.00,0.045
586.00,0.045
587.00,0.045
588.00,0.045
589.00,0.045
590.00,0.045
591.00,0.045
592.00,0.044
593.00,0.044
594.00,0.044
595.00,0.044
596.00,0.044
597.00,0.044
598.00,0.044
599.00,0.044
600.00,0.044
601.00,0.044
602.00,0.044
603.00,0.044
604.00,0.044
605.00,0.044
606.00,0.044
607.00,0.044
608.00,0.043
609.00,0.043
610.00,0.043
611.00,0.043
612.00,0.043
613.00,0.043
614.00,0.043
615.00,0.043
616.00,0.043
617.00,0.043
618.00,0.043
619.00,0.043
620.00,0.043
621.00,0.043
622.00,0.043
623.00,0.043
624.00,0.043
625.00,0.043
626.00,0.042
627.00,0.042
628.00,0.042
629.00,0.042
630.00,0.042
631.00,0.042
632.00,0.042
633.00,0.042
634.00,0.042
635.00,0.042
636.00,0.042
637.00,0.042
638.00,0.042
639.00,0.042
640.00,0.042
641.00,0.042
642.00,0.042
643.00,0.042
644.00,0.042
645.00,0.042
646.00,0.042
647.00,0.042
648.00,0.042
649.00,0.042
650.00,0.042
651.00,0.042
652.00,0.042
653.00,0.042
654.00,0.042
655.00,0.042
656.00,0.042
657.00,0.042
658.00,0.042
659.00,0.042
660.00,0.042
661.00,0.042
662.00,0.042
663.00,0.042
664.00,0.042
665.00,0.042
666.00,0.042
667.00,0.042
668.00,0.042
669.00,0.042
670.00,0.042
671.00,0.042
672.00,0.042
673.00,0.042
674.00,0.042
675.00,0.042
676.00,0.042
677.00,0.042
678.00,0.042
679.00,0.042
680.00,0.042
681.00,0.042
682.00,0.042
683.00,0.041
684.00,0.041
685.00,0.041
686.00,0.042
687.00,0.042
688.00,0.042
689.00,0.042
690.00,0.042
691.00,0.042
692.00,0.042
693.00,0.042
694.00,0.042
695.00,0.042
696.00,0.042
697.00,0.042
698.00,0.042
699.00,0.042
700.00,0.042
701.00,0.042
702.00,0.042
703.00,0.042
704.00,0.042
705.00,0.042
706.00,0.042
707.00,0.042
708.00,0.042
709.00,0.043
710.00,0.043
711.00,0.043
712.00,0.043
713.00,0.043
714.00,0.043
715.00,0.043
716.00,0.044
717.00,0.044
718.00,0.044
719.00,0.044
720.00,0.044
721.00,0.044
722.00,0.045
723.00,0.045
724.00,0.045
725.00,0.045
726.00,0.046
727.00,0.046
728.00,0.046
729.00,0.047
730.00,0.047
731.00,0.048
732.00,0.048
733.00,0.049
734.00,0.049
735.00,0.050
736.00,0.050
737.00,0.050
738.00,0.050
739.00,0.051
740.00,0.051
741.00,0.051
742.00,0.051
743.00,0.051
744.00,0.051
745.00,0.051
746.00,0.051
747.00,0.051
748.00,0.051
749.00,0.051
750.00,0.051
751.00,0.051
752.00,0.051
753.00,0.051
754.00,0.051
755.00,0.051
756.00,0.051
757.00,0.051
758.00,0.050
759.00,0.051
760.00,0.051
761.00,0.051
762.00,0.050
763.00,0.050
764.00,0.050
765.00,0.050
766.00,0.050
767.00,0.050
768.00,0.050
769.00,0.050
770.00,0.050
771.00,0.050
772.00,0.050
773.00,0.050
774.00,0.050
775.00,0.050
776.00,0.050
777.00,0.050
778.00,0.049
779.00,0.049
780.00,0.049
781.00,0.049
782.00,0.049
783.00,0.049
784.00,0.049
785.00,0.049
786.00,0.049
787.00,0.049
788.00,0.049
789.00,0.048
790.00,0.048
791.00,0.048
792.00,0.048
793.00,0.048
794.00,0.048
795.00,0.048
796.00,0.048
797.00,0.048
798.00,0.048
799.00,0.048
800.00,0.047
801.00,0.047
802.00,0.047
803.00,0.047
804.00,0.047
805.00,0.047
806.00,0.047
807.00,0.047
808.00,0.047
809.00,0.047
810.00,0.047
811.00,0.047
812.00,0.047
813.00,0.047
814.00,0.047
815.00,0.047
816.00,0.047
817.00,0.047
818.00,0.047
819.00,0.048
820.00,0.048
821.00,0.048
822.00,0.048
823.00,0.048
824.00,0.049
825.00,0.049
826.00,0.049
827.00,0.050
828.00,0.050
829.00,0.051
830.00,0.052
831.00,0.052
832.00,0.053
833.00,0.053
834.00,0.053
835.00,0.054
836.00,0.054
837.00,0.054
838.00,0.054
839.00,0.054
840.00,0.054
841.00,0.054
842.00,0.054
843.00,0.055
844.00,0.055
845.00,0.055
846.00,0.055
847.00,0.055
848.00,0.055
849.00,0.055
850.00,0.055
851.00,0.055
852.00,0.056
853.00,0.056
854.00,0.056
855.00,0.056
856.00,0.056
857.00,0.056
858.00,0.056
859.00,0.056
860.00,0.056
861.00,0.057
862.00,0.057
863.00,0.057
864.00,0.057
865.00,0.057
866.00,0.057
867.00,0.057
868.00,0.057
869.00,0.058
870.00,0.058
871.00,0.058
872.00,0.058
873.00,0.058
874.00,0.058
875.00,0.058
876.00,0.059
877.00,0.059
878.00,0.059
879.00,0.059
880.00,0.060
881.00,0.060
882.00,0.060
883.00,0.060
884.00,0.061
885.00,0.061
886.00,0.061
887.00,0.061
888.00,0.062
889.00,0.062
890.00,0.062
891.00,0.062
892.00,0.062
893.00,0.063
894.00,0.063
895.00,0.063
896.00,0.063
897.00,0.064
898.00,0.064
899.00,0.064
900.00,0.064
