"BilboquetPeaudOurs50x - RawData"
"Wavelength nm.","Abs."
190.00,2.792
191.00,2.893
192.00,2.908
193.00,3.095
194.00,3.200
195.00,3.117
196.00,3.344
197.00,3.315
198.00,3.445
199.00,3.390
200.00,3.417
201.00,3.502
202.00,3.535
203.00,3.483
204.00,3.346
205.00,3.519
206.00,3.443
207.00,3.405
208.00,3.363
209.00,3.259
210.00,3.124
211.00,3.068
212.00,2.933
213.00,2.845
214.00,2.755
215.00,2.657
216.00,2.554
217.00,2.452
218.00,2.356
219.00,2.258
220.00,2.166
221.00,2.074
222.00,1.982
223.00,1.894
224.00,1.805
225.00,1.719
226.00,1.635
227.00,1.547
228.00,1.464
229.00,1.389
230.00,1.319
231.00,1.255
232.00,1.197
233.00,1.145
234.00,1.100
235.00,1.060
236.00,1.026
237.00,0.996
238.00,0.971
239.00,0.951
240.00,0.933
241.00,0.919
242.00,0.909
243.00,0.902
244.00,0.897
245.00,0.894
246.00,0.893
247.00,0.892
248.00,0.893
249.00,0.895
250.00,0.898
251.00,0.901
252.00,0.905
253.00,0.910
254.00,0.914
255.00,0.919
256.00,0.923
257.00,0.927
258.00,0.929
259.00,0.931
260.00,0.933
261.00,0.935
262.00,0.937
263.00,0.939
264.00,0.941
265.00,0.942
266.00,0.943
267.00,0.942
268.00,0.942
269.00,0.940
270.00,0.936
271.00,0.931
272.00,0.925
273.00,0.917
274.00,0.908
275.00,0.898
276.00,0.886
277.00,0.874
278.00,0.859
279.00,0.844
280.00,0.828
281.00,0.811
282.00,0.793
283.00,0.774
284.00,0.754
285.00,0.734
286.00,0.714
287.00,0.694
288.00,0.674
289.00,0.653
290.00,0.630
291.00,0.608
292.00,0.588
293.00,0.571
294.00,0.556
295.00,0.543
296.00,0.532
297.00,0.522
298.00,0.511
299.00,0.502
300.00,0.494
301.00,0.486
302.00,0.479
303.00,0.473
304.00,0.467
305.00,0.461
306.00,0.455
307.00,0.450
308.00,0.444
309.00,0.439
310.00,0.434
311.00,0.430
312.00,0.425
313.00,0.421
314.00,0.416
315.00,0.412
316.00,0.407
317.00,0.403
318.00,0.398
319.00,0.393
320.00,0.388
321.00,0.383
322.00,0.377
323.00,0.372
324.00,0.367
325.00,0.361
326.00,0.355
327.00,0.350
328.00,0.343
329.00,0.337
330.00,0.331
331.00,0.325
332.00,0.318
333.00,0.312
334.00,0.306
335.00,0.300
336.00,0.294
337.00,0.288
338.00,0.282
339.00,0.276
340.00,0.270
341.00,0.263
342.00,0.257
343.00,0.251
344.00,0.246
345.00,0.240
346.00,0.235
347.00,0.230
348.00,0.225
349.00,0.220
350.00,0.216
351.00,0.211
352.00,0.207
353.00,0.202
354.00,0.198
355.00,0.195
356.00,0.191
357.00,0.187
358.00,0.183
359.00,0.180
360.00,0.176
361.00,0.173
362.00,0.170
363.00,0.167
364.00,0.164
365.00,0.161
366.00,0.159
367.00,0.156
368.00,0.153
369.00,0.151
370.00,0.148
371.00,0.146
372.00,0.144
373.00,0.142
374.00,0.139
375.00,0.137
376.00,0.135
377.00,0.133
378.00,0.132
379.00,0.130
380.00,0.128
381.00,0.126
382.00,0.124
383.00,0.123
384.00,0.121
385.00,0.120
386.00,0.119
387.00,0.117
388.00,0.116
389.00,0.115
390.00,0.113
391.00,0.112
392.00,0.111
393.00,0.110
394.00,0.108
395.00,0.108
396.00,0.107
397.00,0.106
398.00,0.105
399.00,0.104
400.00,0.103
401.00,0.102
402.00,0.101
403.00,0.100
404.00,0.100
405.00,0.099
406.00,0.098
407.00,0.097
408.00,0.097
409.00,0.096
410.00,0.095
411.00,0.095
412.00,0.094
413.00,0.094
414.00,0.093
415.00,0.092
416.00,0.092
417.00,0.092
418.00,0.091
419.00,0.091
420.00,0.090
421.00,0.090
422.00,0.089
423.00,0.089
424.00,0.088
425.00,0.088
426.00,0.087
427.00,0.087
428.00,0.087
429.00,0.086
430.00,0.086
431.00,0.085
432.00,0.085
433.00,0.085
434.00,0.084
435.00,0.084
436.00,0.083
437.00,0.083
438.00,0.083
439.00,0.083
440.00,0.082
441.00,0.082
442.00,0.082
443.00,0.081
444.00,0.081
445.00,0.081
446.00,0.080
447.00,0.080
448.00,0.080
449.00,0.080
450.00,0.079
451.00,0.079
452.00,0.079
453.00,0.079
454.00,0.078
455.00,0.078
456.00,0.078
457.00,0.078
458.00,0.077
459.00,0.077
460.00,0.077
461.00,0.077
462.00,0.077
463.00,0.076
464.00,0.076
465.00,0.076
466.00,0.076
467.00,0.075
468.00,0.075
469.00,0.075
470.00,0.075
471.00,0.075
472.00,0.074
473.00,0.074
474.00,0.074
475.00,0.074
476.00,0.074
477.00,0.073
478.00,0.073
479.00,0.073
480.00,0.073
481.00,0.073
482.00,0.073
483.00,0.072
484.00,0.072
485.00,0.072
486.00,0.072
487.00,0.072
488.00,0.071
489.00,0.071
490.00,0.071
491.00,0.071
492.00,0.071
493.00,0.071
494.00,0.070
495.00,0.070
496.00,0.070
497.00,0.070
498.00,0.070
499.00,0.070
500.00,0.070
501.00,0.069
502.00,0.069
503.00,0.069
504.00,0.069
505.00,0.069
506.00,0.069
507.00,0.069
508.00,0.069
509.00,0.068
510.00,0.068
511.00,0.068
512.00,0.068
513.00,0.068
514.00,0.068
515.00,0.068
516.00,0.067
517.00,0.067
518.00,0.067
519.00,0.067
520.00,0.067
521.00,0.067
522.00,0.067
523.00,0.067
524.00,0.067
525.00,0.066
526.00,0.066
527.00,0.066
528.00,0.066
529.00,0.066
530.00,0.066
531.00,0.066
532.00,0.066
533.00,0.066
534.00,0.065
535.00,0.065
536.00,0.066
537.00,0.065
538.00,0.065
539.00,0.065
540.00,0.065
541.00,0.065
542.00,0.065
543.00,0.065
544.00,0.065
545.00,0.064
546.00,0.064
547.00,0.064
548.00,0.064
549.00,0.064
550.00,0.064
551.00,0.064
552.00,0.064
553.00,0.064
554.00,0.064
555.00,0.064
556.00,0.064
557.00,0.063
558.00,0.063
559.00,0.063
560.00,0.063
561.00,0.063
562.00,0.063
563.00,0.063
564.00,0.063
565.00,0.063
566.00,0.063
567.00,0.063
568.00,0.063
569.00,0.063
570.00,0.063
571.00,0.063
572.00,0.063
573.00,0.063
574.00,0.063
575.00,0.062
576.00,0.062
577.00,0.062
578.00,0.062
579.00,0.062
580.00,0.062
581.00,0.062
582.00,0.062
583.00,0.062
584.00,0.062
585.00,0.062
586.00,0.062
587.00,0.062
588.00,0.062
589.00,0.062
590.00,0.062
591.00,0.062
592.00,0.062
593.00,0.062
594.00,0.062
595.00,0.061
596.00,0.061
597.00,0.061
598.00,0.061
599.00,0.061
600.00,0.061
601.00,0.061
602.00,0.061
603.00,0.061
604.00,0.061
605.00,0.061
606.00,0.061
607.00,0.061
608.00,0.061
609.00,0.061
610.00,0.061
611.00,0.061
612.00,0.061
613.00,0.061
614.00,0.061
615.00,0.061
616.00,0.061
617.00,0.061
618.00,0.061
619.00,0.061
620.00,0.061
621.00,0.061
622.00,0.060
623.00,0.060
624.00,0.060
625.00,0.060
626.00,0.060
627.00,0.060
628.00,0.060
629.00,0.060
630.00,0.060
631.00,0.060
632.00,0.060
633.00,0.060
634.00,0.060
635.00,0.060
636.00,0.060
637.00,0.060
638.00,0.060
639.00,0.060
640.00,0.060
641.00,0.060
642.00,0.060
643.00,0.060
644.00,0.060
645.00,0.060
646.00,0.060
647.00,0.059
648.00,0.059
649.00,0.059
650.00,0.059
651.00,0.059
652.00,0.059
653.00,0.059
654.00,0.059
655.00,0.059
656.00,0.059
657.00,0.059
658.00,0.059
659.00,0.059
660.00,0.059
661.00,0.059
662.00,0.059
663.00,0.059
664.00,0.059
665.00,0.059
666.00,0.059
667.00,0.059
668.00,0.059
669.00,0.059
670.00,0.059
671.00,0.059
672.00,0.059
673.00,0.059
674.00,0.059
675.00,0.059
676.00,0.059
677.00,0.059
678.00,0.059
679.00,0.059
680.00,0.059
681.00,0.059
682.00,0.059
683.00,0.059
684.00,0.059
685.00,0.059
686.00,0.059
687.00,0.059
688.00,0.059
689.00,0.059
690.00,0.059
691.00,0.059
692.00,0.059
693.00,0.059
694.00,0.059
695.00,0.059
696.00,0.059
697.00,0.059
698.00,0.059
699.00,0.059
700.00,0.059
701.00,0.059
702.00,0.059
703.00,0.059
704.00,0.059
705.00,0.059
706.00,0.059
707.00,0.059
708.00,0.059
709.00,0.059
710.00,0.059
711.00,0.060
712.00,0.060
713.00,0.060
714.00,0.060
715.00,0.060
716.00,0.060
717.00,0.060
718.00,0.061
719.00,0.061
720.00,0.061
721.00,0.061
722.00,0.061
723.00,0.061
724.00,0.062
725.00,0.062
726.00,0.062
727.00,0.063
728.00,0.063
729.00,0.063
730.00,0.064
731.00,0.064
732.00,0.065
733.00,0.065
734.00,0.066
735.00,0.066
736.00,0.066
737.00,0.067
738.00,0.067
739.00,0.067
740.00,0.067
741.00,0.067
742.00,0.067
743.00,0.067
744.00,0.067
745.00,0.067
746.00,0.067
747.00,0.067
748.00,0.067
749.00,0.067
750.00,0.067
751.00,0.067
752.00,0.067
753.00,0.067
754.00,0.067
755.00,0.067
756.00,0.067
757.00,0.067
758.00,0.067
759.00,0.067
760.00,0.067
761.00,0.067
762.00,0.067
763.00,0.066
764.00,0.066
765.00,0.066
766.00,0.066
767.00,0.066
768.00,0.066
769.00,0.066
770.00,0.066
771.00,0.066
772.00,0.066
773.00,0.066
774.00,0.066
775.00,0.066
776.00,0.066
777.00,0.065
778.00,0.065
779.00,0.065
780.00,0.065
781.00,0.065
782.00,0.065
783.00,0.065
784.00,0.065
785.00,0.065
786.00,0.065
787.00,0.064
788.00,0.064
789.00,0.064
790.00,0.064
791.00,0.064
792.00,0.064
793.00,0.064
794.00,0.064
795.00,0.064
796.00,0.063
797.00,0.063
798.00,0.063
799.00,0.063
800.00,0.063
801.00,0.063
802.00,0.063
803.00,0.063
804.00,0.063
805.00,0.063
806.00,0.063
807.00,0.063
808.00,0.063
809.00,0.063
810.00,0.063
811.00,0.063
812.00,0.063
813.00,0.063
814.00,0.063
815.00,0.063
816.00,0.063
817.00,0.063
818.00,0.063
819.00,0.063
820.00,0.063
821.00,0.063
822.00,0.064
823.00,0.064
824.00,0.065
825.00,0.065
826.00,0.066
827.00,0.066
828.00,0.067
829.00,0.067
830.00,0.068
831.00,0.068
832.00,0.069
833.00,0.069
834.00,0.070
835.00,0.070
836.00,0.070
837.00,0.070
838.00,0.071
839.00,0.071
840.00,0.071
841.00,0.071
842.00,0.071
843.00,0.071
844.00,0.072
845.00,0.072
846.00,0.072
847.00,0.072
848.00,0.072
849.00,0.072
850.00,0.072
851.00,0.072
852.00,0.072
853.00,0.073
854.00,0.073
855.00,0.073
856.00,0.073
857.00,0.073
858.00,0.073
859.00,0.074
860.00,0.074
861.00,0.074
862.00,0.074
863.00,0.074
864.00,0.074
865.00,0.074
866.00,0.074
867.00,0.074
868.00,0.075
869.00,0.075
870.00,0.075
871.00,0.075
872.00,0.075
873.00,0.075
874.00,0.075
875.00,0.076
876.00,0.076
877.00,0.076
878.00,0.076
879.00,0.077
880.00,0.077
881.00,0.078
882.00,0.078
883.00,0.079
884.00,0.079
885.00,0.079
886.00,0.079
887.00,0.080
888.00,0.080
889.00,0.081
890.00,0.081
891.00,0.081
892.00,0.082
893.00,0.083
894.00,0.083
895.00,0.083
896.00,0.084
897.00,0.084
898.00,0.085
899.00,0.085
900.00,0.085
