"BittATibiKristalWhite_25x - RawData"
"Wavelength nm.","Abs."
190.00,3.129
191.00,3.599
192.00,3.630
193.00,3.671
194.00,3.670
195.00,3.577
196.00,3.931
197.00,3.856
198.00,3.664
199.00,3.815
200.00,3.706
201.00,3.794
202.00,3.909
203.00,3.953
204.00,3.824
205.00,3.853
206.00,3.860
207.00,3.897
208.00,3.905
209.00,3.983
210.00,3.933
211.00,3.920
212.00,3.836
213.00,3.880
214.00,3.864
215.00,3.625
216.00,3.541
217.00,3.503
218.00,3.420
219.00,3.203
220.00,3.062
221.00,2.903
222.00,2.738
223.00,2.610
224.00,2.458
225.00,2.317
226.00,2.168
227.00,2.024
228.00,1.880
229.00,1.748
230.00,1.625
231.00,1.515
232.00,1.419
233.00,1.336
234.00,1.266
235.00,1.207
236.00,1.159
237.00,1.120
238.00,1.090
239.00,1.066
240.00,1.050
241.00,1.040
242.00,1.035
243.00,1.032
244.00,1.034
245.00,1.038
246.00,1.044
247.00,1.051
248.00,1.060
249.00,1.069
250.00,1.079
251.00,1.089
252.00,1.099
253.00,1.109
254.00,1.118
255.00,1.126
256.00,1.134
257.00,1.140
258.00,1.144
259.00,1.145
260.00,1.146
261.00,1.146
262.00,1.147
263.00,1.146
264.00,1.145
265.00,1.143
266.00,1.139
267.00,1.133
268.00,1.125
269.00,1.116
270.00,1.104
271.00,1.089
272.00,1.075
273.00,1.058
274.00,1.039
275.00,1.018
276.00,0.997
277.00,0.974
278.00,0.949
279.00,0.923
280.00,0.897
281.00,0.870
282.00,0.843
283.00,0.813
284.00,0.783
285.00,0.752
286.00,0.723
287.00,0.696
288.00,0.670
289.00,0.643
290.00,0.615
291.00,0.587
292.00,0.563
293.00,0.540
294.00,0.522
295.00,0.505
296.00,0.491
297.00,0.479
298.00,0.466
299.00,0.456
300.00,0.446
301.00,0.438
302.00,0.430
303.00,0.423
304.00,0.417
305.00,0.411
306.00,0.405
307.00,0.400
308.00,0.394
309.00,0.390
310.00,0.386
311.00,0.381
312.00,0.377
313.00,0.373
314.00,0.370
315.00,0.366
316.00,0.362
317.00,0.359
318.00,0.355
319.00,0.351
320.00,0.347
321.00,0.343
322.00,0.339
323.00,0.334
324.00,0.330
325.00,0.324
326.00,0.319
327.00,0.314
328.00,0.309
329.00,0.303
330.00,0.298
331.00,0.292
332.00,0.286
333.00,0.280
334.00,0.274
335.00,0.268
336.00,0.262
337.00,0.256
338.00,0.250
339.00,0.244
340.00,0.238
341.00,0.231
342.00,0.225
343.00,0.219
344.00,0.213
345.00,0.208
346.00,0.202
347.00,0.197
348.00,0.192
349.00,0.186
350.00,0.182
351.00,0.176
352.00,0.172
353.00,0.167
354.00,0.162
355.00,0.158
356.00,0.154
357.00,0.150
358.00,0.146
359.00,0.142
360.00,0.139
361.00,0.135
362.00,0.132
363.00,0.129
364.00,0.126
365.00,0.123
366.00,0.120
367.00,0.118
368.00,0.115
369.00,0.113
370.00,0.111
371.00,0.108
372.00,0.106
373.00,0.104
374.00,0.102
375.00,0.100
376.00,0.098
377.00,0.097
378.00,0.095
379.00,0.093
380.00,0.092
381.00,0.090
382.00,0.089
383.00,0.087
384.00,0.086
385.00,0.085
386.00,0.084
387.00,0.083
388.00,0.082
389.00,0.080
390.00,0.079
391.00,0.079
392.00,0.078
393.00,0.077
394.00,0.076
395.00,0.075
396.00,0.074
397.00,0.074
398.00,0.073
399.00,0.072
400.00,0.072
401.00,0.071
402.00,0.071
403.00,0.070
404.00,0.070
405.00,0.069
406.00,0.069
407.00,0.068
408.00,0.068
409.00,0.067
410.00,0.067
411.00,0.066
412.00,0.066
413.00,0.065
414.00,0.065
415.00,0.065
416.00,0.064
417.00,0.064
418.00,0.064
419.00,0.063
420.00,0.063
421.00,0.063
422.00,0.062
423.00,0.062
424.00,0.062
425.00,0.061
426.00,0.061
427.00,0.061
428.00,0.060
429.00,0.060
430.00,0.060
431.00,0.060
432.00,0.059
433.00,0.059
434.00,0.059
435.00,0.059
436.00,0.058
437.00,0.058
438.00,0.058
439.00,0.058
440.00,0.057
441.00,0.057
442.00,0.057
443.00,0.057
444.00,0.057
445.00,0.056
446.00,0.056
447.00,0.056
448.00,0.056
449.00,0.056
450.00,0.055
451.00,0.055
452.00,0.055
453.00,0.055
454.00,0.055
455.00,0.054
456.00,0.054
457.00,0.054
458.00,0.054
459.00,0.054
460.00,0.054
461.00,0.053
462.00,0.053
463.00,0.053
464.00,0.053
465.00,0.053
466.00,0.053
467.00,0.053
468.00,0.052
469.00,0.052
470.00,0.052
471.00,0.052
472.00,0.052
473.00,0.052
474.00,0.051
475.00,0.051
476.00,0.051
477.00,0.051
478.00,0.051
479.00,0.051
480.00,0.051
481.00,0.050
482.00,0.050
483.00,0.050
484.00,0.050
485.00,0.050
486.00,0.050
487.00,0.050
488.00,0.049
489.00,0.049
490.00,0.049
491.00,0.049
492.00,0.049
493.00,0.049
494.00,0.049
495.00,0.049
496.00,0.048
497.00,0.048
498.00,0.048
499.00,0.048
500.00,0.048
501.00,0.048
502.00,0.048
503.00,0.048
504.00,0.048
505.00,0.047
506.00,0.047
507.00,0.047
508.00,0.047
509.00,0.047
510.00,0.047
511.00,0.047
512.00,0.047
513.00,0.047
514.00,0.047
515.00,0.047
516.00,0.046
517.00,0.046
518.00,0.046
519.00,0.046
520.00,0.046
521.00,0.046
522.00,0.046
523.00,0.046
524.00,0.046
525.00,0.046
526.00,0.046
527.00,0.045
528.00,0.045
529.00,0.045
530.00,0.045
531.00,0.045
532.00,0.045
533.00,0.045
534.00,0.045
535.00,0.045
536.00,0.045
537.00,0.045
538.00,0.045
539.00,0.044
540.00,0.044
541.00,0.044
542.00,0.044
543.00,0.044
544.00,0.044
545.00,0.044
546.00,0.044
547.00,0.044
548.00,0.044
549.00,0.044
550.00,0.044
551.00,0.044
552.00,0.044
553.00,0.044
554.00,0.044
555.00,0.043
556.00,0.043
557.00,0.043
558.00,0.043
559.00,0.043
560.00,0.043
561.00,0.043
562.00,0.043
563.00,0.043
564.00,0.043
565.00,0.043
566.00,0.043
567.00,0.043
568.00,0.043
569.00,0.043
570.00,0.043
571.00,0.043
572.00,0.043
573.00,0.042
574.00,0.042
575.00,0.042
576.00,0.042
577.00,0.042
578.00,0.042
579.00,0.042
580.00,0.042
581.00,0.042
582.00,0.042
583.00,0.042
584.00,0.042
585.00,0.042
586.00,0.042
587.00,0.042
588.00,0.042
589.00,0.042
590.00,0.042
591.00,0.042
592.00,0.042
593.00,0.042
594.00,0.042
595.00,0.042
596.00,0.042
597.00,0.042
598.00,0.042
599.00,0.042
600.00,0.042
601.00,0.042
602.00,0.042
603.00,0.042
604.00,0.042
605.00,0.042
606.00,0.042
607.00,0.042
608.00,0.042
609.00,0.042
610.00,0.042
611.00,0.042
612.00,0.042
613.00,0.041
614.00,0.041
615.00,0.041
616.00,0.041
617.00,0.041
618.00,0.041
619.00,0.041
620.00,0.041
621.00,0.041
622.00,0.041
623.00,0.041
624.00,0.041
625.00,0.041
626.00,0.041
627.00,0.041
628.00,0.041
629.00,0.041
630.00,0.041
631.00,0.041
632.00,0.041
633.00,0.041
634.00,0.041
635.00,0.041
636.00,0.041
637.00,0.041
638.00,0.041
639.00,0.041
640.00,0.041
641.00,0.041
642.00,0.040
643.00,0.041
644.00,0.041
645.00,0.041
646.00,0.040
647.00,0.041
648.00,0.041
649.00,0.040
650.00,0.040
651.00,0.040
652.00,0.040
653.00,0.040
654.00,0.041
655.00,0.041
656.00,0.040
657.00,0.040
658.00,0.040
659.00,0.040
660.00,0.040
661.00,0.040
662.00,0.040
663.00,0.040
664.00,0.040
665.00,0.040
666.00,0.040
667.00,0.040
668.00,0.040
669.00,0.040
670.00,0.040
671.00,0.040
672.00,0.040
673.00,0.040
674.00,0.040
675.00,0.040
676.00,0.040
677.00,0.040
678.00,0.040
679.00,0.040
680.00,0.040
681.00,0.040
682.00,0.040
683.00,0.040
684.00,0.040
685.00,0.040
686.00,0.040
687.00,0.040
688.00,0.040
689.00,0.040
690.00,0.040
691.00,0.040
692.00,0.040
693.00,0.040
694.00,0.040
695.00,0.040
696.00,0.040
697.00,0.040
698.00,0.040
699.00,0.040
700.00,0.040
701.00,0.040
702.00,0.040
703.00,0.041
704.00,0.041
705.00,0.041
706.00,0.041
707.00,0.041
708.00,0.041
709.00,0.041
710.00,0.041
711.00,0.041
712.00,0.041
713.00,0.041
714.00,0.042
715.00,0.042
716.00,0.042
717.00,0.042
718.00,0.042
719.00,0.042
720.00,0.043
721.00,0.043
722.00,0.043
723.00,0.043
724.00,0.044
725.00,0.044
726.00,0.044
727.00,0.044
728.00,0.045
729.00,0.045
730.00,0.046
731.00,0.046
732.00,0.047
733.00,0.047
734.00,0.047
735.00,0.048
736.00,0.048
737.00,0.048
738.00,0.049
739.00,0.049
740.00,0.049
741.00,0.049
742.00,0.049
743.00,0.049
744.00,0.049
745.00,0.049
746.00,0.049
747.00,0.049
748.00,0.049
749.00,0.049
750.00,0.049
751.00,0.049
752.00,0.049
753.00,0.049
754.00,0.049
755.00,0.049
756.00,0.049
757.00,0.049
758.00,0.049
759.00,0.049
760.00,0.049
761.00,0.049
762.00,0.049
763.00,0.049
764.00,0.049
765.00,0.049
766.00,0.049
767.00,0.048
768.00,0.049
769.00,0.049
770.00,0.048
771.00,0.048
772.00,0.048
773.00,0.048
774.00,0.048
775.00,0.048
776.00,0.048
777.00,0.048
778.00,0.048
779.00,0.048
780.00,0.048
781.00,0.048
782.00,0.047
783.00,0.047
784.00,0.047
785.00,0.047
786.00,0.047
787.00,0.047
788.00,0.047
789.00,0.047
790.00,0.047
791.00,0.047
792.00,0.046
793.00,0.046
794.00,0.046
795.00,0.046
796.00,0.046
797.00,0.046
798.00,0.046
799.00,0.046
800.00,0.046
801.00,0.046
802.00,0.045
803.00,0.045
804.00,0.045
805.00,0.045
806.00,0.045
807.00,0.045
808.00,0.045
809.00,0.045
810.00,0.045
811.00,0.045
812.00,0.045
813.00,0.045
814.00,0.045
815.00,0.046
816.00,0.046
817.00,0.046
818.00,0.046
819.00,0.046
820.00,0.046
821.00,0.046
822.00,0.046
823.00,0.046
824.00,0.047
825.00,0.047
826.00,0.048
827.00,0.048
828.00,0.049
829.00,0.049
830.00,0.050
831.00,0.050
832.00,0.051
833.00,0.051
834.00,0.051
835.00,0.052
836.00,0.052
837.00,0.052
838.00,0.052
839.00,0.052
840.00,0.053
841.00,0.053
842.00,0.053
843.00,0.053
844.00,0.053
845.00,0.053
846.00,0.053
847.00,0.053
848.00,0.053
849.00,0.054
850.00,0.054
851.00,0.054
852.00,0.054
853.00,0.054
854.00,0.054
855.00,0.054
856.00,0.054
857.00,0.054
858.00,0.054
859.00,0.055
860.00,0.055
861.00,0.055
862.00,0.055
863.00,0.055
864.00,0.055
865.00,0.055
866.00,0.055
867.00,0.055
868.00,0.056
869.00,0.056
870.00,0.056
871.00,0.056
872.00,0.056
873.00,0.056
874.00,0.057
875.00,0.057
876.00,0.057
877.00,0.057
878.00,0.057
879.00,0.058
880.00,0.058
881.00,0.058
882.00,0.058
883.00,0.058
884.00,0.059
885.00,0.059
886.00,0.059
887.00,0.060
888.00,0.060
889.00,0.060
890.00,0.060
891.00,0.060
892.00,0.061
893.00,0.061
894.00,0.061
895.00,0.061
896.00,0.062
897.00,0.062
898.00,0.062
899.00,0.062
900.00,0.063
