"BlancheDePreto50x - RawData"
"Wavelength nm.","Abs."
190.00,2.826
191.00,3.012
192.00,3.024
193.00,3.015
194.00,3.263
195.00,3.232
196.00,3.189
197.00,3.293
198.00,3.353
199.00,3.349
200.00,3.293
201.00,3.383
202.00,3.291
203.00,3.263
204.00,3.256
205.00,3.212
206.00,3.037
207.00,2.954
208.00,2.835
209.00,2.685
210.00,2.566
211.00,2.454
212.00,2.347
213.00,2.241
214.00,2.135
215.00,2.037
216.00,1.946
217.00,1.850
218.00,1.759
219.00,1.672
220.00,1.584
221.00,1.503
222.00,1.425
223.00,1.347
224.00,1.268
225.00,1.191
226.00,1.113
227.00,1.033
228.00,0.957
229.00,0.887
230.00,0.822
231.00,0.764
232.00,0.712
233.00,0.667
234.00,0.628
235.00,0.595
236.00,0.568
237.00,0.546
238.00,0.528
239.00,0.515
240.00,0.505
241.00,0.498
242.00,0.494
243.00,0.492
244.00,0.491
245.00,0.493
246.00,0.495
247.00,0.498
248.00,0.502
249.00,0.506
250.00,0.511
251.00,0.516
252.00,0.520
253.00,0.525
254.00,0.530
255.00,0.534
256.00,0.539
257.00,0.542
258.00,0.544
259.00,0.546
260.00,0.546
261.00,0.547
262.00,0.548
263.00,0.549
264.00,0.549
265.00,0.549
266.00,0.548
267.00,0.546
268.00,0.544
269.00,0.540
270.00,0.536
271.00,0.531
272.00,0.525
273.00,0.519
274.00,0.511
275.00,0.503
276.00,0.495
277.00,0.486
278.00,0.476
279.00,0.465
280.00,0.455
281.00,0.444
282.00,0.432
283.00,0.419
284.00,0.406
285.00,0.392
286.00,0.380
287.00,0.368
288.00,0.356
289.00,0.343
290.00,0.330
291.00,0.316
292.00,0.304
293.00,0.293
294.00,0.284
295.00,0.276
296.00,0.269
297.00,0.262
298.00,0.256
299.00,0.250
300.00,0.245
301.00,0.241
302.00,0.237
303.00,0.233
304.00,0.230
305.00,0.227
306.00,0.224
307.00,0.221
308.00,0.218
309.00,0.216
310.00,0.214
311.00,0.212
312.00,0.210
313.00,0.209
314.00,0.207
315.00,0.205
316.00,0.203
317.00,0.202
318.00,0.200
319.00,0.198
320.00,0.196
321.00,0.194
322.00,0.191
323.00,0.189
324.00,0.187
325.00,0.185
326.00,0.182
327.00,0.180
328.00,0.177
329.00,0.174
330.00,0.171
331.00,0.168
332.00,0.165
333.00,0.162
334.00,0.159
335.00,0.156
336.00,0.153
337.00,0.150
338.00,0.147
339.00,0.144
340.00,0.141
341.00,0.136
342.00,0.133
343.00,0.130
344.00,0.127
345.00,0.124
346.00,0.121
347.00,0.118
348.00,0.115
349.00,0.113
350.00,0.110
351.00,0.108
352.00,0.105
353.00,0.102
354.00,0.100
355.00,0.098
356.00,0.095
357.00,0.093
358.00,0.091
359.00,0.089
360.00,0.087
361.00,0.085
362.00,0.083
363.00,0.082
364.00,0.080
365.00,0.079
366.00,0.077
367.00,0.076
368.00,0.074
369.00,0.073
370.00,0.071
371.00,0.070
372.00,0.069
373.00,0.068
374.00,0.067
375.00,0.065
376.00,0.064
377.00,0.063
378.00,0.062
379.00,0.061
380.00,0.060
381.00,0.059
382.00,0.059
383.00,0.058
384.00,0.057
385.00,0.056
386.00,0.055
387.00,0.055
388.00,0.054
389.00,0.053
390.00,0.053
391.00,0.052
392.00,0.052
393.00,0.051
394.00,0.051
395.00,0.050
396.00,0.050
397.00,0.049
398.00,0.049
399.00,0.049
400.00,0.048
401.00,0.048
402.00,0.047
403.00,0.047
404.00,0.047
405.00,0.047
406.00,0.046
407.00,0.046
408.00,0.046
409.00,0.045
410.00,0.045
411.00,0.045
412.00,0.045
413.00,0.044
414.00,0.044
415.00,0.044
416.00,0.044
417.00,0.044
418.00,0.044
419.00,0.044
420.00,0.043
421.00,0.043
422.00,0.043
423.00,0.043
424.00,0.043
425.00,0.043
426.00,0.042
427.00,0.042
428.00,0.042
429.00,0.042
430.00,0.042
431.00,0.042
432.00,0.042
433.00,0.041
434.00,0.041
435.00,0.041
436.00,0.041
437.00,0.041
438.00,0.041
439.00,0.041
440.00,0.041
441.00,0.041
442.00,0.041
443.00,0.040
444.00,0.040
445.00,0.040
446.00,0.040
447.00,0.040
448.00,0.040
449.00,0.040
450.00,0.040
451.00,0.040
452.00,0.040
453.00,0.040
454.00,0.040
455.00,0.040
456.00,0.040
457.00,0.039
458.00,0.039
459.00,0.039
460.00,0.039
461.00,0.039
462.00,0.039
463.00,0.039
464.00,0.039
465.00,0.039
466.00,0.039
467.00,0.039
468.00,0.039
469.00,0.039
470.00,0.039
471.00,0.039
472.00,0.038
473.00,0.038
474.00,0.038
475.00,0.038
476.00,0.038
477.00,0.038
478.00,0.038
479.00,0.038
480.00,0.038
481.00,0.038
482.00,0.038
483.00,0.038
484.00,0.038
485.00,0.038
486.00,0.038
487.00,0.038
488.00,0.038
489.00,0.038
490.00,0.038
491.00,0.037
492.00,0.037
493.00,0.037
494.00,0.037
495.00,0.037
496.00,0.037
497.00,0.037
498.00,0.037
499.00,0.037
500.00,0.037
501.00,0.037
502.00,0.037
503.00,0.037
504.00,0.037
505.00,0.037
506.00,0.037
507.00,0.037
508.00,0.037
509.00,0.037
510.00,0.037
511.00,0.037
512.00,0.037
513.00,0.037
514.00,0.037
515.00,0.036
516.00,0.036
517.00,0.036
518.00,0.036
519.00,0.036
520.00,0.036
521.00,0.036
522.00,0.036
523.00,0.036
524.00,0.036
525.00,0.036
526.00,0.036
527.00,0.036
528.00,0.036
529.00,0.036
530.00,0.036
531.00,0.036
532.00,0.036
533.00,0.036
534.00,0.036
535.00,0.036
536.00,0.036
537.00,0.036
538.00,0.036
539.00,0.036
540.00,0.036
541.00,0.036
542.00,0.036
543.00,0.036
544.00,0.036
545.00,0.036
546.00,0.035
547.00,0.035
548.00,0.035
549.00,0.035
550.00,0.035
551.00,0.035
552.00,0.035
553.00,0.035
554.00,0.035
555.00,0.035
556.00,0.035
557.00,0.035
558.00,0.035
559.00,0.035
560.00,0.035
561.00,0.035
562.00,0.035
563.00,0.035
564.00,0.035
565.00,0.035
566.00,0.035
567.00,0.035
568.00,0.035
569.00,0.035
570.00,0.035
571.00,0.035
572.00,0.035
573.00,0.035
574.00,0.035
575.00,0.035
576.00,0.035
577.00,0.035
578.00,0.035
579.00,0.035
580.00,0.035
581.00,0.035
582.00,0.035
583.00,0.035
584.00,0.035
585.00,0.035
586.00,0.035
587.00,0.035
588.00,0.035
589.00,0.035
590.00,0.035
591.00,0.035
592.00,0.035
593.00,0.035
594.00,0.035
595.00,0.035
596.00,0.035
597.00,0.035
598.00,0.035
599.00,0.035
600.00,0.035
601.00,0.035
602.00,0.035
603.00,0.035
604.00,0.035
605.00,0.035
606.00,0.035
607.00,0.035
608.00,0.035
609.00,0.035
610.00,0.035
611.00,0.035
612.00,0.035
613.00,0.035
614.00,0.035
615.00,0.035
616.00,0.035
617.00,0.035
618.00,0.035
619.00,0.035
620.00,0.035
621.00,0.035
622.00,0.035
623.00,0.035
624.00,0.035
625.00,0.035
626.00,0.035
627.00,0.035
628.00,0.035
629.00,0.035
630.00,0.035
631.00,0.035
632.00,0.035
633.00,0.035
634.00,0.035
635.00,0.035
636.00,0.035
637.00,0.035
638.00,0.035
639.00,0.035
640.00,0.035
641.00,0.035
642.00,0.035
643.00,0.035
644.00,0.035
645.00,0.035
646.00,0.035
647.00,0.035
648.00,0.035
649.00,0.035
650.00,0.035
651.00,0.035
652.00,0.035
653.00,0.035
654.00,0.035
655.00,0.035
656.00,0.035
657.00,0.035
658.00,0.035
659.00,0.035
660.00,0.035
661.00,0.035
662.00,0.035
663.00,0.035
664.00,0.035
665.00,0.035
666.00,0.035
667.00,0.035
668.00,0.035
669.00,0.035
670.00,0.035
671.00,0.035
672.00,0.035
673.00,0.035
674.00,0.035
675.00,0.035
676.00,0.035
677.00,0.035
678.00,0.035
679.00,0.035
680.00,0.035
681.00,0.035
682.00,0.035
683.00,0.035
684.00,0.035
685.00,0.035
686.00,0.035
687.00,0.035
688.00,0.035
689.00,0.035
690.00,0.035
691.00,0.035
692.00,0.035
693.00,0.035
694.00,0.035
695.00,0.035
696.00,0.035
697.00,0.035
698.00,0.035
699.00,0.036
700.00,0.036
701.00,0.036
702.00,0.036
703.00,0.036
704.00,0.036
705.00,0.036
706.00,0.036
707.00,0.036
708.00,0.036
709.00,0.036
710.00,0.036
711.00,0.037
712.00,0.037
713.00,0.037
714.00,0.037
715.00,0.037
716.00,0.037
717.00,0.038
718.00,0.038
719.00,0.038
720.00,0.038
721.00,0.038
722.00,0.039
723.00,0.039
724.00,0.039
725.00,0.039
726.00,0.040
727.00,0.040
728.00,0.040
729.00,0.041
730.00,0.041
731.00,0.042
732.00,0.042
733.00,0.043
734.00,0.043
735.00,0.044
736.00,0.044
737.00,0.044
738.00,0.044
739.00,0.044
740.00,0.045
741.00,0.045
742.00,0.045
743.00,0.045
744.00,0.045
745.00,0.045
746.00,0.044
747.00,0.045
748.00,0.045
749.00,0.045
750.00,0.045
751.00,0.045
752.00,0.045
753.00,0.045
754.00,0.045
755.00,0.045
756.00,0.045
757.00,0.045
758.00,0.045
759.00,0.045
760.00,0.045
761.00,0.045
762.00,0.045
763.00,0.045
764.00,0.044
765.00,0.044
766.00,0.044
767.00,0.044
768.00,0.044
769.00,0.044
770.00,0.044
771.00,0.044
772.00,0.044
773.00,0.044
774.00,0.044
775.00,0.044
776.00,0.044
777.00,0.044
778.00,0.044
779.00,0.044
780.00,0.044
781.00,0.044
782.00,0.043
783.00,0.043
784.00,0.043
785.00,0.043
786.00,0.043
787.00,0.043
788.00,0.043
789.00,0.043
790.00,0.043
791.00,0.043
792.00,0.043
793.00,0.042
794.00,0.042
795.00,0.042
796.00,0.042
797.00,0.042
798.00,0.042
799.00,0.042
800.00,0.042
801.00,0.042
802.00,0.042
803.00,0.042
804.00,0.041
805.00,0.041
806.00,0.041
807.00,0.041
808.00,0.041
809.00,0.042
810.00,0.042
811.00,0.042
812.00,0.042
813.00,0.042
814.00,0.042
815.00,0.042
816.00,0.042
817.00,0.042
818.00,0.042
819.00,0.042
820.00,0.042
821.00,0.042
822.00,0.043
823.00,0.043
824.00,0.043
825.00,0.044
826.00,0.044
827.00,0.044
828.00,0.045
829.00,0.046
830.00,0.046
831.00,0.047
832.00,0.047
833.00,0.048
834.00,0.048
835.00,0.048
836.00,0.048
837.00,0.049
838.00,0.049
839.00,0.049
840.00,0.049
841.00,0.049
842.00,0.049
843.00,0.049
844.00,0.049
845.00,0.050
846.00,0.050
847.00,0.050
848.00,0.050
849.00,0.050
850.00,0.050
851.00,0.050
852.00,0.051
853.00,0.051
854.00,0.051
855.00,0.051
856.00,0.051
857.00,0.051
858.00,0.051
859.00,0.051
860.00,0.051
861.00,0.051
862.00,0.052
863.00,0.052
864.00,0.052
865.00,0.052
866.00,0.052
867.00,0.052
868.00,0.052
869.00,0.053
870.00,0.053
871.00,0.053
872.00,0.053
873.00,0.053
874.00,0.053
875.00,0.054
876.00,0.054
877.00,0.054
878.00,0.054
879.00,0.055
880.00,0.055
881.00,0.055
882.00,0.055
883.00,0.056
884.00,0.056
885.00,0.056
886.00,0.056
887.00,0.056
888.00,0.057
889.00,0.057
890.00,0.057
891.00,0.057
892.00,0.058
893.00,0.058
894.00,0.058
895.00,0.058
896.00,0.059
897.00,0.059
898.00,0.059
899.00,0.059
900.00,0.060
