"BockaleScotchAle100x - RawData"
"Wavelength nm.","Abs."
190.00,3.620
191.00,3.803
192.00,3.812
193.00,3.906
194.00,3.801
195.00,3.887
196.00,3.797
197.00,3.831
198.00,3.992
199.00,3.938
200.00,3.954
201.00,3.967
202.00,3.842
203.00,3.774
204.00,3.926
205.00,3.904
206.00,3.912
207.00,3.867
208.00,3.763
209.00,3.648
210.00,3.486
211.00,3.456
212.00,3.231
213.00,3.123
214.00,3.006
215.00,2.875
216.00,2.754
217.00,2.661
218.00,2.555
219.00,2.441
220.00,2.335
221.00,2.242
222.00,2.147
223.00,2.058
224.00,1.965
225.00,1.874
226.00,1.784
227.00,1.694
228.00,1.603
229.00,1.520
230.00,1.442
231.00,1.369
232.00,1.304
233.00,1.244
234.00,1.192
235.00,1.146
236.00,1.107
237.00,1.074
238.00,1.045
239.00,1.022
240.00,1.002
241.00,0.986
242.00,0.976
243.00,0.968
244.00,0.964
245.00,0.961
246.00,0.961
247.00,0.961
248.00,0.963
249.00,0.965
250.00,0.969
251.00,0.973
252.00,0.978
253.00,0.983
254.00,0.988
255.00,0.993
256.00,0.998
257.00,1.002
258.00,1.005
259.00,1.007
260.00,1.008
261.00,1.009
262.00,1.010
263.00,1.011
264.00,1.011
265.00,1.011
266.00,1.010
267.00,1.008
268.00,1.005
269.00,1.000
270.00,0.994
271.00,0.988
272.00,0.981
273.00,0.973
274.00,0.964
275.00,0.954
276.00,0.943
277.00,0.931
278.00,0.916
279.00,0.902
280.00,0.888
281.00,0.873
282.00,0.857
283.00,0.840
284.00,0.822
285.00,0.803
286.00,0.785
287.00,0.768
288.00,0.750
289.00,0.731
290.00,0.712
291.00,0.693
292.00,0.675
293.00,0.660
294.00,0.646
295.00,0.633
296.00,0.621
297.00,0.610
298.00,0.599
299.00,0.589
300.00,0.579
301.00,0.570
302.00,0.562
303.00,0.553
304.00,0.545
305.00,0.537
306.00,0.529
307.00,0.522
308.00,0.514
309.00,0.507
310.00,0.500
311.00,0.494
312.00,0.487
313.00,0.481
314.00,0.475
315.00,0.469
316.00,0.463
317.00,0.457
318.00,0.451
319.00,0.445
320.00,0.439
321.00,0.433
322.00,0.427
323.00,0.421
324.00,0.415
325.00,0.408
326.00,0.402
327.00,0.396
328.00,0.390
329.00,0.384
330.00,0.377
331.00,0.371
332.00,0.365
333.00,0.359
334.00,0.353
335.00,0.347
336.00,0.341
337.00,0.335
338.00,0.329
339.00,0.323
340.00,0.318
341.00,0.311
342.00,0.305
343.00,0.300
344.00,0.294
345.00,0.289
346.00,0.284
347.00,0.280
348.00,0.275
349.00,0.270
350.00,0.265
351.00,0.261
352.00,0.256
353.00,0.253
354.00,0.249
355.00,0.245
356.00,0.241
357.00,0.237
358.00,0.233
359.00,0.229
360.00,0.226
361.00,0.223
362.00,0.219
363.00,0.216
364.00,0.214
365.00,0.211
366.00,0.208
367.00,0.205
368.00,0.203
369.00,0.200
370.00,0.197
371.00,0.195
372.00,0.192
373.00,0.190
374.00,0.187
375.00,0.185
376.00,0.183
377.00,0.180
378.00,0.178
379.00,0.176
380.00,0.174
381.00,0.172
382.00,0.170
383.00,0.168
384.00,0.166
385.00,0.164
386.00,0.162
387.00,0.160
388.00,0.158
389.00,0.156
390.00,0.155
391.00,0.153
392.00,0.151
393.00,0.150
394.00,0.148
395.00,0.146
396.00,0.145
397.00,0.144
398.00,0.142
399.00,0.141
400.00,0.139
401.00,0.138
402.00,0.136
403.00,0.135
404.00,0.134
405.00,0.133
406.00,0.131
407.00,0.130
408.00,0.129
409.00,0.128
410.00,0.127
411.00,0.126
412.00,0.124
413.00,0.123
414.00,0.122
415.00,0.121
416.00,0.120
417.00,0.119
418.00,0.118
419.00,0.117
420.00,0.116
421.00,0.115
422.00,0.114
423.00,0.113
424.00,0.112
425.00,0.111
426.00,0.111
427.00,0.110
428.00,0.109
429.00,0.108
430.00,0.107
431.00,0.106
432.00,0.105
433.00,0.105
434.00,0.104
435.00,0.103
436.00,0.102
437.00,0.101
438.00,0.101
439.00,0.100
440.00,0.099
441.00,0.099
442.00,0.098
443.00,0.097
444.00,0.096
445.00,0.096
446.00,0.095
447.00,0.095
448.00,0.094
449.00,0.093
450.00,0.093
451.00,0.092
452.00,0.091
453.00,0.091
454.00,0.090
455.00,0.090
456.00,0.089
457.00,0.089
458.00,0.088
459.00,0.087
460.00,0.087
461.00,0.086
462.00,0.086
463.00,0.085
464.00,0.084
465.00,0.084
466.00,0.084
467.00,0.083
468.00,0.083
469.00,0.082
470.00,0.082
471.00,0.081
472.00,0.081
473.00,0.080
474.00,0.080
475.00,0.079
476.00,0.079
477.00,0.078
478.00,0.078
479.00,0.077
480.00,0.077
481.00,0.076
482.00,0.076
483.00,0.075
484.00,0.075
485.00,0.074
486.00,0.074
487.00,0.074
488.00,0.073
489.00,0.073
490.00,0.072
491.00,0.072
492.00,0.072
493.00,0.071
494.00,0.071
495.00,0.071
496.00,0.070
497.00,0.070
498.00,0.069
499.00,0.069
500.00,0.069
501.00,0.068
502.00,0.068
503.00,0.068
504.00,0.067
505.00,0.067
506.00,0.067
507.00,0.066
508.00,0.066
509.00,0.066
510.00,0.065
511.00,0.065
512.00,0.065
513.00,0.064
514.00,0.064
515.00,0.064
516.00,0.063
517.00,0.063
518.00,0.063
519.00,0.063
520.00,0.062
521.00,0.062
522.00,0.062
523.00,0.061
524.00,0.061
525.00,0.061
526.00,0.061
527.00,0.060
528.00,0.060
529.00,0.060
530.00,0.060
531.00,0.059
532.00,0.059
533.00,0.059
534.00,0.058
535.00,0.058
536.00,0.058
537.00,0.058
538.00,0.058
539.00,0.057
540.00,0.057
541.00,0.057
542.00,0.057
543.00,0.056
544.00,0.056
545.00,0.056
546.00,0.056
547.00,0.056
548.00,0.055
549.00,0.055
550.00,0.055
551.00,0.055
552.00,0.055
553.00,0.054
554.00,0.054
555.00,0.054
556.00,0.054
557.00,0.054
558.00,0.053
559.00,0.053
560.00,0.053
561.00,0.053
562.00,0.053
563.00,0.053
564.00,0.052
565.00,0.052
566.00,0.052
567.00,0.052
568.00,0.052
569.00,0.052
570.00,0.051
571.00,0.051
572.00,0.051
573.00,0.051
574.00,0.051
575.00,0.051
576.00,0.051
577.00,0.050
578.00,0.050
579.00,0.050
580.00,0.050
581.00,0.050
582.00,0.050
583.00,0.050
584.00,0.049
585.00,0.049
586.00,0.049
587.00,0.049
588.00,0.049
589.00,0.049
590.00,0.049
591.00,0.049
592.00,0.049
593.00,0.049
594.00,0.048
595.00,0.048
596.00,0.048
597.00,0.048
598.00,0.048
599.00,0.048
600.00,0.048
601.00,0.048
602.00,0.048
603.00,0.048
604.00,0.048
605.00,0.048
606.00,0.047
607.00,0.047
608.00,0.047
609.00,0.047
610.00,0.047
611.00,0.047
612.00,0.047
613.00,0.047
614.00,0.047
615.00,0.047
616.00,0.046
617.00,0.046
618.00,0.046
619.00,0.046
620.00,0.046
621.00,0.046
622.00,0.046
623.00,0.046
624.00,0.046
625.00,0.046
626.00,0.046
627.00,0.045
628.00,0.045
629.00,0.045
630.00,0.045
631.00,0.045
632.00,0.045
633.00,0.045
634.00,0.045
635.00,0.045
636.00,0.044
637.00,0.044
638.00,0.044
639.00,0.044
640.00,0.044
641.00,0.044
642.00,0.044
643.00,0.044
644.00,0.044
645.00,0.044
646.00,0.044
647.00,0.044
648.00,0.044
649.00,0.044
650.00,0.044
651.00,0.044
652.00,0.044
653.00,0.044
654.00,0.044
655.00,0.044
656.00,0.044
657.00,0.044
658.00,0.044
659.00,0.043
660.00,0.043
661.00,0.043
662.00,0.043
663.00,0.043
664.00,0.043
665.00,0.043
666.00,0.043
667.00,0.043
668.00,0.043
669.00,0.043
670.00,0.043
671.00,0.043
672.00,0.043
673.00,0.043
674.00,0.043
675.00,0.043
676.00,0.043
677.00,0.042
678.00,0.042
679.00,0.042
680.00,0.042
681.00,0.042
682.00,0.042
683.00,0.042
684.00,0.042
685.00,0.042
686.00,0.042
687.00,0.042
688.00,0.042
689.00,0.042
690.00,0.042
691.00,0.042
692.00,0.042
693.00,0.042
694.00,0.042
695.00,0.042
696.00,0.042
697.00,0.042
698.00,0.042
699.00,0.042
700.00,0.042
701.00,0.042
702.00,0.042
703.00,0.042
704.00,0.042
705.00,0.042
706.00,0.042
707.00,0.042
708.00,0.042
709.00,0.042
710.00,0.043
711.00,0.043
712.00,0.043
713.00,0.043
714.00,0.043
715.00,0.043
716.00,0.043
717.00,0.043
718.00,0.044
719.00,0.044
720.00,0.044
721.00,0.044
722.00,0.044
723.00,0.045
724.00,0.045
725.00,0.045
726.00,0.045
727.00,0.046
728.00,0.046
729.00,0.046
730.00,0.047
731.00,0.047
732.00,0.048
733.00,0.048
734.00,0.049
735.00,0.049
736.00,0.049
737.00,0.049
738.00,0.050
739.00,0.050
740.00,0.050
741.00,0.050
742.00,0.050
743.00,0.050
744.00,0.050
745.00,0.050
746.00,0.050
747.00,0.050
748.00,0.050
749.00,0.050
750.00,0.050
751.00,0.050
752.00,0.050
753.00,0.050
754.00,0.050
755.00,0.050
756.00,0.050
757.00,0.050
758.00,0.049
759.00,0.050
760.00,0.050
761.00,0.049
762.00,0.049
763.00,0.049
764.00,0.049
765.00,0.049
766.00,0.049
767.00,0.049
768.00,0.049
769.00,0.049
770.00,0.049
771.00,0.049
772.00,0.049
773.00,0.049
774.00,0.049
775.00,0.049
776.00,0.048
777.00,0.048
778.00,0.048
779.00,0.048
780.00,0.048
781.00,0.048
782.00,0.048
783.00,0.048
784.00,0.048
785.00,0.048
786.00,0.047
787.00,0.047
788.00,0.047
789.00,0.047
790.00,0.047
791.00,0.047
792.00,0.047
793.00,0.047
794.00,0.046
795.00,0.046
796.00,0.046
797.00,0.046
798.00,0.046
799.00,0.046
800.00,0.046
801.00,0.046
802.00,0.046
803.00,0.046
804.00,0.046
805.00,0.046
806.00,0.045
807.00,0.045
808.00,0.045
809.00,0.045
810.00,0.045
811.00,0.045
812.00,0.045
813.00,0.046
814.00,0.046
815.00,0.046
816.00,0.046
817.00,0.046
818.00,0.046
819.00,0.046
820.00,0.046
821.00,0.046
822.00,0.046
823.00,0.047
824.00,0.047
825.00,0.047
826.00,0.048
827.00,0.048
828.00,0.049
829.00,0.049
830.00,0.050
831.00,0.050
832.00,0.051
833.00,0.051
834.00,0.052
835.00,0.052
836.00,0.052
837.00,0.052
838.00,0.052
839.00,0.053
840.00,0.053
841.00,0.053
842.00,0.053
843.00,0.053
844.00,0.053
845.00,0.053
846.00,0.053
847.00,0.053
848.00,0.054
849.00,0.054
850.00,0.054
851.00,0.054
852.00,0.054
853.00,0.054
854.00,0.054
855.00,0.054
856.00,0.055
857.00,0.055
858.00,0.055
859.00,0.055
860.00,0.055
861.00,0.055
862.00,0.055
863.00,0.055
864.00,0.055
865.00,0.055
866.00,0.056
867.00,0.056
868.00,0.056
869.00,0.056
870.00,0.056
871.00,0.056
872.00,0.057
873.00,0.057
874.00,0.057
875.00,0.057
876.00,0.057
877.00,0.058
878.00,0.058
879.00,0.058
880.00,0.058
881.00,0.058
882.00,0.059
883.00,0.059
884.00,0.059
885.00,0.059
886.00,0.060
887.00,0.060
888.00,0.060
889.00,0.060
890.00,0.060
891.00,0.061
892.00,0.061
893.00,0.061
894.00,0.061
895.00,0.062
896.00,0.062
897.00,0.062
898.00,0.062
899.00,0.063
900.00,0.063
