"BockaleIPABlanche50x - RawData"
"Wavelength nm.","Abs."
190.00,2.795
191.00,3.333
192.00,3.623
193.00,3.787
194.00,3.873
195.00,3.754
196.00,3.841
197.00,3.838
198.00,3.803
199.00,3.792
200.00,3.872
201.00,3.799
202.00,3.979
203.00,3.898
204.00,3.808
205.00,3.856
206.00,3.796
207.00,3.546
208.00,3.453
209.00,3.343
210.00,3.250
211.00,3.061
212.00,2.961
213.00,2.836
214.00,2.686
215.00,2.577
216.00,2.441
217.00,2.323
218.00,2.215
219.00,2.105
220.00,1.995
221.00,1.899
222.00,1.803
223.00,1.710
224.00,1.617
225.00,1.527
226.00,1.440
227.00,1.353
228.00,1.271
229.00,1.198
230.00,1.130
231.00,1.069
232.00,1.016
233.00,0.967
234.00,0.927
235.00,0.893
236.00,0.864
237.00,0.841
238.00,0.823
239.00,0.809
240.00,0.799
241.00,0.792
242.00,0.787
243.00,0.785
244.00,0.785
245.00,0.787
246.00,0.789
247.00,0.793
248.00,0.797
249.00,0.801
250.00,0.807
251.00,0.812
252.00,0.817
253.00,0.823
254.00,0.828
255.00,0.832
256.00,0.836
257.00,0.839
258.00,0.840
259.00,0.841
260.00,0.840
261.00,0.839
262.00,0.838
263.00,0.836
264.00,0.834
265.00,0.831
266.00,0.828
267.00,0.825
268.00,0.821
269.00,0.815
270.00,0.807
271.00,0.797
272.00,0.787
273.00,0.774
274.00,0.762
275.00,0.748
276.00,0.735
277.00,0.721
278.00,0.706
279.00,0.690
280.00,0.674
281.00,0.657
282.00,0.640
283.00,0.621
284.00,0.602
285.00,0.582
286.00,0.563
287.00,0.545
288.00,0.525
289.00,0.506
290.00,0.486
291.00,0.466
292.00,0.448
293.00,0.432
294.00,0.419
295.00,0.407
296.00,0.396
297.00,0.387
298.00,0.378
299.00,0.370
300.00,0.363
301.00,0.356
302.00,0.350
303.00,0.345
304.00,0.341
305.00,0.337
306.00,0.333
307.00,0.329
308.00,0.326
309.00,0.323
310.00,0.320
311.00,0.317
312.00,0.314
313.00,0.312
314.00,0.309
315.00,0.307
316.00,0.304
317.00,0.302
318.00,0.299
319.00,0.297
320.00,0.294
321.00,0.291
322.00,0.287
323.00,0.284
324.00,0.281
325.00,0.277
326.00,0.273
327.00,0.269
328.00,0.265
329.00,0.261
330.00,0.256
331.00,0.252
332.00,0.248
333.00,0.243
334.00,0.238
335.00,0.233
336.00,0.229
337.00,0.225
338.00,0.220
339.00,0.215
340.00,0.211
341.00,0.204
342.00,0.200
343.00,0.195
344.00,0.191
345.00,0.187
346.00,0.183
347.00,0.178
348.00,0.175
349.00,0.171
350.00,0.167
351.00,0.163
352.00,0.160
353.00,0.157
354.00,0.153
355.00,0.150
356.00,0.147
357.00,0.144
358.00,0.142
359.00,0.139
360.00,0.136
361.00,0.134
362.00,0.132
363.00,0.130
364.00,0.128
365.00,0.126
366.00,0.124
367.00,0.122
368.00,0.120
369.00,0.118
370.00,0.116
371.00,0.115
372.00,0.113
373.00,0.112
374.00,0.110
375.00,0.109
376.00,0.107
377.00,0.106
378.00,0.104
379.00,0.103
380.00,0.102
381.00,0.101
382.00,0.099
383.00,0.098
384.00,0.097
385.00,0.096
386.00,0.095
387.00,0.094
388.00,0.093
389.00,0.092
390.00,0.091
391.00,0.090
392.00,0.089
393.00,0.088
394.00,0.087
395.00,0.086
396.00,0.086
397.00,0.085
398.00,0.084
399.00,0.083
400.00,0.083
401.00,0.082
402.00,0.082
403.00,0.081
404.00,0.080
405.00,0.080
406.00,0.079
407.00,0.079
408.00,0.078
409.00,0.078
410.00,0.077
411.00,0.077
412.00,0.077
413.00,0.076
414.00,0.076
415.00,0.075
416.00,0.075
417.00,0.075
418.00,0.075
419.00,0.074
420.00,0.074
421.00,0.074
422.00,0.073
423.00,0.073
424.00,0.073
425.00,0.073
426.00,0.072
427.00,0.072
428.00,0.072
429.00,0.072
430.00,0.072
431.00,0.072
432.00,0.071
433.00,0.071
434.00,0.071
435.00,0.071
436.00,0.071
437.00,0.070
438.00,0.070
439.00,0.070
440.00,0.070
441.00,0.070
442.00,0.070
443.00,0.069
444.00,0.069
445.00,0.069
446.00,0.069
447.00,0.069
448.00,0.069
449.00,0.069
450.00,0.069
451.00,0.068
452.00,0.068
453.00,0.068
454.00,0.068
455.00,0.068
456.00,0.068
457.00,0.068
458.00,0.068
459.00,0.067
460.00,0.067
461.00,0.067
462.00,0.067
463.00,0.067
464.00,0.067
465.00,0.067
466.00,0.066
467.00,0.066
468.00,0.066
469.00,0.066
470.00,0.066
471.00,0.066
472.00,0.066
473.00,0.066
474.00,0.065
475.00,0.065
476.00,0.065
477.00,0.065
478.00,0.065
479.00,0.065
480.00,0.065
481.00,0.065
482.00,0.064
483.00,0.064
484.00,0.064
485.00,0.064
486.00,0.064
487.00,0.064
488.00,0.064
489.00,0.063
490.00,0.063
491.00,0.063
492.00,0.063
493.00,0.063
494.00,0.063
495.00,0.063
496.00,0.063
497.00,0.063
498.00,0.062
499.00,0.062
500.00,0.062
501.00,0.062
502.00,0.062
503.00,0.062
504.00,0.062
505.00,0.062
506.00,0.062
507.00,0.062
508.00,0.061
509.00,0.061
510.00,0.061
511.00,0.061
512.00,0.061
513.00,0.061
514.00,0.061
515.00,0.061
516.00,0.061
517.00,0.061
518.00,0.061
519.00,0.060
520.00,0.060
521.00,0.060
522.00,0.060
523.00,0.060
524.00,0.060
525.00,0.060
526.00,0.060
527.00,0.060
528.00,0.060
529.00,0.060
530.00,0.060
531.00,0.059
532.00,0.059
533.00,0.059
534.00,0.059
535.00,0.059
536.00,0.059
537.00,0.059
538.00,0.059
539.00,0.059
540.00,0.059
541.00,0.059
542.00,0.059
543.00,0.058
544.00,0.058
545.00,0.058
546.00,0.058
547.00,0.058
548.00,0.058
549.00,0.058
550.00,0.058
551.00,0.058
552.00,0.058
553.00,0.058
554.00,0.058
555.00,0.058
556.00,0.058
557.00,0.058
558.00,0.058
559.00,0.057
560.00,0.057
561.00,0.057
562.00,0.057
563.00,0.057
564.00,0.057
565.00,0.057
566.00,0.057
567.00,0.057
568.00,0.057
569.00,0.057
570.00,0.057
571.00,0.057
572.00,0.057
573.00,0.057
574.00,0.057
575.00,0.057
576.00,0.057
577.00,0.056
578.00,0.056
579.00,0.056
580.00,0.056
581.00,0.056
582.00,0.056
583.00,0.056
584.00,0.056
585.00,0.056
586.00,0.056
587.00,0.056
588.00,0.056
589.00,0.056
590.00,0.056
591.00,0.056
592.00,0.056
593.00,0.056
594.00,0.056
595.00,0.056
596.00,0.056
597.00,0.056
598.00,0.056
599.00,0.056
600.00,0.056
601.00,0.056
602.00,0.056
603.00,0.056
604.00,0.056
605.00,0.056
606.00,0.055
607.00,0.055
608.00,0.055
609.00,0.055
610.00,0.055
611.00,0.055
612.00,0.055
613.00,0.055
614.00,0.055
615.00,0.055
616.00,0.055
617.00,0.055
618.00,0.055
619.00,0.055
620.00,0.055
621.00,0.055
622.00,0.055
623.00,0.055
624.00,0.055
625.00,0.055
626.00,0.054
627.00,0.054
628.00,0.054
629.00,0.054
630.00,0.054
631.00,0.054
632.00,0.054
633.00,0.054
634.00,0.054
635.00,0.054
636.00,0.054
637.00,0.054
638.00,0.054
639.00,0.054
640.00,0.054
641.00,0.054
642.00,0.054
643.00,0.054
644.00,0.054
645.00,0.054
646.00,0.054
647.00,0.054
648.00,0.054
649.00,0.054
650.00,0.053
651.00,0.053
652.00,0.053
653.00,0.053
654.00,0.053
655.00,0.053
656.00,0.053
657.00,0.053
658.00,0.053
659.00,0.053
660.00,0.053
661.00,0.053
662.00,0.053
663.00,0.053
664.00,0.053
665.00,0.053
666.00,0.053
667.00,0.053
668.00,0.053
669.00,0.053
670.00,0.053
671.00,0.053
672.00,0.053
673.00,0.053
674.00,0.053
675.00,0.053
676.00,0.053
677.00,0.053
678.00,0.053
679.00,0.053
680.00,0.052
681.00,0.052
682.00,0.052
683.00,0.053
684.00,0.052
685.00,0.052
686.00,0.052
687.00,0.052
688.00,0.052
689.00,0.052
690.00,0.052
691.00,0.052
692.00,0.052
693.00,0.052
694.00,0.052
695.00,0.052
696.00,0.052
697.00,0.052
698.00,0.052
699.00,0.052
700.00,0.052
701.00,0.052
702.00,0.052
703.00,0.052
704.00,0.053
705.00,0.053
706.00,0.053
707.00,0.053
708.00,0.053
709.00,0.053
710.00,0.053
711.00,0.053
712.00,0.053
713.00,0.053
714.00,0.053
715.00,0.053
716.00,0.053
717.00,0.054
718.00,0.054
719.00,0.054
720.00,0.054
721.00,0.054
722.00,0.055
723.00,0.055
724.00,0.055
725.00,0.055
726.00,0.055
727.00,0.056
728.00,0.056
729.00,0.057
730.00,0.057
731.00,0.058
732.00,0.058
733.00,0.058
734.00,0.059
735.00,0.059
736.00,0.059
737.00,0.060
738.00,0.060
739.00,0.060
740.00,0.060
741.00,0.060
742.00,0.060
743.00,0.060
744.00,0.060
745.00,0.060
746.00,0.060
747.00,0.060
748.00,0.060
749.00,0.060
750.00,0.060
751.00,0.060
752.00,0.060
753.00,0.060
754.00,0.060
755.00,0.060
756.00,0.060
757.00,0.060
758.00,0.060
759.00,0.060
760.00,0.060
761.00,0.060
762.00,0.059
763.00,0.059
764.00,0.059
765.00,0.059
766.00,0.059
767.00,0.059
768.00,0.059
769.00,0.059
770.00,0.059
771.00,0.059
772.00,0.059
773.00,0.059
774.00,0.059
775.00,0.059
776.00,0.058
777.00,0.058
778.00,0.058
779.00,0.058
780.00,0.058
781.00,0.058
782.00,0.058
783.00,0.058
784.00,0.058
785.00,0.057
786.00,0.057
787.00,0.057
788.00,0.057
789.00,0.057
790.00,0.057
791.00,0.057
792.00,0.057
793.00,0.057
794.00,0.056
795.00,0.056
796.00,0.056
797.00,0.056
798.00,0.056
799.00,0.056
800.00,0.056
801.00,0.056
802.00,0.056
803.00,0.055
804.00,0.055
805.00,0.055
806.00,0.055
807.00,0.055
808.00,0.055
809.00,0.055
810.00,0.055
811.00,0.055
812.00,0.055
813.00,0.055
814.00,0.055
815.00,0.055
816.00,0.055
817.00,0.055
818.00,0.055
819.00,0.056
820.00,0.056
821.00,0.056
822.00,0.056
823.00,0.056
824.00,0.057
825.00,0.057
826.00,0.057
827.00,0.058
828.00,0.058
829.00,0.059
830.00,0.059
831.00,0.060
832.00,0.061
833.00,0.061
834.00,0.061
835.00,0.061
836.00,0.062
837.00,0.062
838.00,0.062
839.00,0.062
840.00,0.062
841.00,0.062
842.00,0.062
843.00,0.063
844.00,0.063
845.00,0.063
846.00,0.063
847.00,0.063
848.00,0.063
849.00,0.063
850.00,0.063
851.00,0.063
852.00,0.063
853.00,0.064
854.00,0.064
855.00,0.064
856.00,0.064
857.00,0.064
858.00,0.064
859.00,0.064
860.00,0.064
861.00,0.064
862.00,0.064
863.00,0.064
864.00,0.065
865.00,0.065
866.00,0.065
867.00,0.065
868.00,0.065
869.00,0.065
870.00,0.065
871.00,0.066
872.00,0.066
873.00,0.066
874.00,0.066
875.00,0.066
876.00,0.066
877.00,0.067
878.00,0.067
879.00,0.067
880.00,0.067
881.00,0.068
882.00,0.068
883.00,0.068
884.00,0.068
885.00,0.069
886.00,0.069
887.00,0.069
888.00,0.069
889.00,0.069
890.00,0.070
891.00,0.070
892.00,0.070
893.00,0.070
894.00,0.071
895.00,0.071
896.00,0.071
897.00,0.071
898.00,0.072
899.00,0.072
900.00,0.072
