"BonneAventurePit50x - RawData"
"Wavelength nm.","Abs."
190.00,3.645
191.00,3.871
192.00,3.795
193.00,3.936
194.00,3.954
195.00,3.896
196.00,3.930
197.00,3.979
198.00,3.938
199.00,3.895
200.00,3.908
201.00,3.975
202.00,4.000
203.00,3.957
204.00,3.964
205.00,3.882
206.00,3.945
207.00,3.954
208.00,3.925
209.00,3.807
210.00,3.824
211.00,3.861
212.00,3.663
213.00,3.521
214.00,3.385
215.00,3.298
216.00,3.172
217.00,3.021
218.00,2.910
219.00,2.767
220.00,2.652
221.00,2.535
222.00,2.434
223.00,2.330
224.00,2.219
225.00,2.121
226.00,2.018
227.00,1.915
228.00,1.814
229.00,1.720
230.00,1.631
231.00,1.549
232.00,1.475
233.00,1.407
234.00,1.347
235.00,1.295
236.00,1.250
237.00,1.211
238.00,1.178
239.00,1.149
240.00,1.126
241.00,1.108
242.00,1.096
243.00,1.089
244.00,1.085
245.00,1.083
246.00,1.084
247.00,1.087
248.00,1.092
249.00,1.097
250.00,1.103
251.00,1.111
252.00,1.118
253.00,1.126
254.00,1.134
255.00,1.142
256.00,1.151
257.00,1.158
258.00,1.162
259.00,1.166
260.00,1.169
261.00,1.171
262.00,1.174
263.00,1.178
264.00,1.180
265.00,1.180
266.00,1.181
267.00,1.180
268.00,1.178
269.00,1.174
270.00,1.169
271.00,1.163
272.00,1.157
273.00,1.149
274.00,1.141
275.00,1.130
276.00,1.119
277.00,1.107
278.00,1.093
279.00,1.078
280.00,1.063
281.00,1.049
282.00,1.033
283.00,1.015
284.00,0.997
285.00,0.977
286.00,0.959
287.00,0.941
288.00,0.923
289.00,0.904
290.00,0.883
291.00,0.863
292.00,0.845
293.00,0.828
294.00,0.813
295.00,0.799
296.00,0.786
297.00,0.775
298.00,0.763
299.00,0.752
300.00,0.741
301.00,0.730
302.00,0.719
303.00,0.709
304.00,0.698
305.00,0.688
306.00,0.677
307.00,0.667
308.00,0.656
309.00,0.645
310.00,0.635
311.00,0.625
312.00,0.614
313.00,0.604
314.00,0.594
315.00,0.585
316.00,0.575
317.00,0.565
318.00,0.556
319.00,0.546
320.00,0.536
321.00,0.526
322.00,0.516
323.00,0.507
324.00,0.498
325.00,0.487
326.00,0.478
327.00,0.468
328.00,0.458
329.00,0.449
330.00,0.439
331.00,0.430
332.00,0.421
333.00,0.412
334.00,0.403
335.00,0.395
336.00,0.387
337.00,0.379
338.00,0.370
339.00,0.362
340.00,0.355
341.00,0.346
342.00,0.338
343.00,0.331
344.00,0.324
345.00,0.317
346.00,0.311
347.00,0.304
348.00,0.298
349.00,0.292
350.00,0.286
351.00,0.280
352.00,0.275
353.00,0.269
354.00,0.264
355.00,0.259
356.00,0.254
357.00,0.249
358.00,0.244
359.00,0.239
360.00,0.235
361.00,0.231
362.00,0.226
363.00,0.222
364.00,0.219
365.00,0.215
366.00,0.211
367.00,0.208
368.00,0.204
369.00,0.201
370.00,0.197
371.00,0.194
372.00,0.191
373.00,0.188
374.00,0.185
375.00,0.182
376.00,0.179
377.00,0.176
378.00,0.173
379.00,0.171
380.00,0.168
381.00,0.165
382.00,0.163
383.00,0.160
384.00,0.158
385.00,0.156
386.00,0.153
387.00,0.151
388.00,0.149
389.00,0.147
390.00,0.145
391.00,0.143
392.00,0.141
393.00,0.139
394.00,0.137
395.00,0.135
396.00,0.134
397.00,0.132
398.00,0.130
399.00,0.129
400.00,0.127
401.00,0.126
402.00,0.124
403.00,0.123
404.00,0.121
405.00,0.120
406.00,0.119
407.00,0.117
408.00,0.116
409.00,0.115
410.00,0.113
411.00,0.112
412.00,0.111
413.00,0.110
414.00,0.109
415.00,0.108
416.00,0.106
417.00,0.106
418.00,0.105
419.00,0.104
420.00,0.103
421.00,0.102
422.00,0.101
423.00,0.100
424.00,0.099
425.00,0.098
426.00,0.097
427.00,0.096
428.00,0.095
429.00,0.094
430.00,0.093
431.00,0.093
432.00,0.092
433.00,0.091
434.00,0.090
435.00,0.089
436.00,0.089
437.00,0.088
438.00,0.087
439.00,0.086
440.00,0.086
441.00,0.085
442.00,0.084
443.00,0.084
444.00,0.083
445.00,0.082
446.00,0.082
447.00,0.081
448.00,0.080
449.00,0.080
450.00,0.079
451.00,0.079
452.00,0.078
453.00,0.077
454.00,0.077
455.00,0.076
456.00,0.076
457.00,0.075
458.00,0.075
459.00,0.074
460.00,0.073
461.00,0.073
462.00,0.072
463.00,0.072
464.00,0.071
465.00,0.071
466.00,0.070
467.00,0.070
468.00,0.069
469.00,0.069
470.00,0.068
471.00,0.068
472.00,0.067
473.00,0.067
474.00,0.067
475.00,0.066
476.00,0.066
477.00,0.065
478.00,0.065
479.00,0.064
480.00,0.064
481.00,0.063
482.00,0.063
483.00,0.063
484.00,0.062
485.00,0.062
486.00,0.061
487.00,0.061
488.00,0.060
489.00,0.060
490.00,0.060
491.00,0.059
492.00,0.059
493.00,0.059
494.00,0.058
495.00,0.058
496.00,0.058
497.00,0.057
498.00,0.057
499.00,0.057
500.00,0.056
501.00,0.056
502.00,0.056
503.00,0.055
504.00,0.055
505.00,0.055
506.00,0.055
507.00,0.054
508.00,0.054
509.00,0.054
510.00,0.053
511.00,0.053
512.00,0.053
513.00,0.053
514.00,0.052
515.00,0.052
516.00,0.052
517.00,0.052
518.00,0.051
519.00,0.051
520.00,0.051
521.00,0.051
522.00,0.050
523.00,0.050
524.00,0.050
525.00,0.050
526.00,0.049
527.00,0.049
528.00,0.049
529.00,0.049
530.00,0.049
531.00,0.048
532.00,0.048
533.00,0.048
534.00,0.048
535.00,0.048
536.00,0.048
537.00,0.047
538.00,0.047
539.00,0.047
540.00,0.047
541.00,0.047
542.00,0.046
543.00,0.046
544.00,0.046
545.00,0.046
546.00,0.046
547.00,0.046
548.00,0.045
549.00,0.045
550.00,0.045
551.00,0.045
552.00,0.045
553.00,0.045
554.00,0.044
555.00,0.044
556.00,0.044
557.00,0.044
558.00,0.044
559.00,0.044
560.00,0.044
561.00,0.044
562.00,0.043
563.00,0.043
564.00,0.043
565.00,0.043
566.00,0.043
567.00,0.043
568.00,0.043
569.00,0.043
570.00,0.042
571.00,0.042
572.00,0.042
573.00,0.042
574.00,0.042
575.00,0.042
576.00,0.042
577.00,0.042
578.00,0.042
579.00,0.042
580.00,0.041
581.00,0.041
582.00,0.041
583.00,0.041
584.00,0.041
585.00,0.041
586.00,0.041
587.00,0.041
588.00,0.041
589.00,0.041
590.00,0.041
591.00,0.041
592.00,0.041
593.00,0.041
594.00,0.040
595.00,0.040
596.00,0.040
597.00,0.040
598.00,0.040
599.00,0.040
600.00,0.040
601.00,0.040
602.00,0.040
603.00,0.040
604.00,0.040
605.00,0.040
606.00,0.040
607.00,0.040
608.00,0.040
609.00,0.040
610.00,0.040
611.00,0.040
612.00,0.040
613.00,0.039
614.00,0.039
615.00,0.039
616.00,0.039
617.00,0.039
618.00,0.039
619.00,0.039
620.00,0.039
621.00,0.039
622.00,0.039
623.00,0.039
624.00,0.039
625.00,0.039
626.00,0.039
627.00,0.039
628.00,0.039
629.00,0.039
630.00,0.038
631.00,0.038
632.00,0.038
633.00,0.038
634.00,0.038
635.00,0.038
636.00,0.038
637.00,0.038
638.00,0.038
639.00,0.038
640.00,0.038
641.00,0.038
642.00,0.038
643.00,0.038
644.00,0.038
645.00,0.038
646.00,0.038
647.00,0.038
648.00,0.038
649.00,0.038
650.00,0.038
651.00,0.038
652.00,0.038
653.00,0.038
654.00,0.038
655.00,0.038
656.00,0.038
657.00,0.038
658.00,0.038
659.00,0.038
660.00,0.038
661.00,0.037
662.00,0.038
663.00,0.037
664.00,0.037
665.00,0.037
666.00,0.037
667.00,0.037
668.00,0.037
669.00,0.037
670.00,0.037
671.00,0.037
672.00,0.037
673.00,0.037
674.00,0.037
675.00,0.037
676.00,0.037
677.00,0.037
678.00,0.037
679.00,0.037
680.00,0.037
681.00,0.037
682.00,0.037
683.00,0.037
684.00,0.037
685.00,0.037
686.00,0.037
687.00,0.037
688.00,0.037
689.00,0.037
690.00,0.037
691.00,0.037
692.00,0.037
693.00,0.037
694.00,0.037
695.00,0.037
696.00,0.037
697.00,0.037
698.00,0.037
699.00,0.037
700.00,0.037
701.00,0.037
702.00,0.037
703.00,0.037
704.00,0.037
705.00,0.037
706.00,0.037
707.00,0.037
708.00,0.037
709.00,0.038
710.00,0.038
711.00,0.038
712.00,0.038
713.00,0.038
714.00,0.038
715.00,0.038
716.00,0.039
717.00,0.039
718.00,0.039
719.00,0.039
720.00,0.039
721.00,0.040
722.00,0.040
723.00,0.040
724.00,0.040
725.00,0.040
726.00,0.041
727.00,0.041
728.00,0.041
729.00,0.042
730.00,0.042
731.00,0.043
732.00,0.043
733.00,0.044
734.00,0.044
735.00,0.045
736.00,0.045
737.00,0.045
738.00,0.045
739.00,0.045
740.00,0.045
741.00,0.046
742.00,0.046
743.00,0.046
744.00,0.046
745.00,0.046
746.00,0.046
747.00,0.045
748.00,0.045
749.00,0.046
750.00,0.045
751.00,0.045
752.00,0.046
753.00,0.046
754.00,0.046
755.00,0.046
756.00,0.045
757.00,0.046
758.00,0.045
759.00,0.045
760.00,0.046
761.00,0.045
762.00,0.045
763.00,0.045
764.00,0.045
765.00,0.045
766.00,0.045
767.00,0.045
768.00,0.045
769.00,0.045
770.00,0.045
771.00,0.045
772.00,0.045
773.00,0.045
774.00,0.045
775.00,0.045
776.00,0.045
777.00,0.045
778.00,0.044
779.00,0.044
780.00,0.044
781.00,0.044
782.00,0.044
783.00,0.044
784.00,0.044
785.00,0.044
786.00,0.044
787.00,0.044
788.00,0.044
789.00,0.043
790.00,0.043
791.00,0.043
792.00,0.043
793.00,0.043
794.00,0.043
795.00,0.043
796.00,0.043
797.00,0.043
798.00,0.042
799.00,0.042
800.00,0.042
801.00,0.042
802.00,0.042
803.00,0.042
804.00,0.042
805.00,0.042
806.00,0.042
807.00,0.042
808.00,0.042
809.00,0.042
810.00,0.042
811.00,0.042
812.00,0.042
813.00,0.042
814.00,0.042
815.00,0.042
816.00,0.042
817.00,0.042
818.00,0.042
819.00,0.043
820.00,0.043
821.00,0.043
822.00,0.043
823.00,0.043
824.00,0.044
825.00,0.044
826.00,0.044
827.00,0.045
828.00,0.045
829.00,0.046
830.00,0.047
831.00,0.047
832.00,0.048
833.00,0.048
834.00,0.048
835.00,0.049
836.00,0.049
837.00,0.049
838.00,0.049
839.00,0.049
840.00,0.049
841.00,0.050
842.00,0.050
843.00,0.050
844.00,0.050
845.00,0.050
846.00,0.050
847.00,0.050
848.00,0.050
849.00,0.051
850.00,0.051
851.00,0.051
852.00,0.051
853.00,0.051
854.00,0.051
855.00,0.051
856.00,0.051
857.00,0.051
858.00,0.052
859.00,0.052
860.00,0.052
861.00,0.052
862.00,0.052
863.00,0.052
864.00,0.052
865.00,0.052
866.00,0.053
867.00,0.053
868.00,0.053
869.00,0.053
870.00,0.053
871.00,0.053
872.00,0.054
873.00,0.054
874.00,0.054
875.00,0.054
876.00,0.054
877.00,0.055
878.00,0.055
879.00,0.055
880.00,0.055
881.00,0.056
882.00,0.056
883.00,0.056
884.00,0.056
885.00,0.057
886.00,0.057
887.00,0.057
888.00,0.057
889.00,0.057
890.00,0.058
891.00,0.058
892.00,0.058
893.00,0.058
894.00,0.059
895.00,0.059
896.00,0.059
897.00,0.059
898.00,0.060
899.00,0.060
900.00,0.060
