"BorealeDoubleBlanche50x - RawData"
"Wavelength nm.","Abs."
190.00,3.582
191.00,3.730
192.00,3.850
193.00,3.847
194.00,3.639
195.00,3.880
196.00,3.857
197.00,3.810
198.00,3.799
199.00,3.719
200.00,3.931
201.00,3.847
202.00,3.925
203.00,3.790
204.00,3.887
205.00,3.920
206.00,3.835
207.00,3.683
208.00,3.803
209.00,3.825
210.00,3.613
211.00,3.438
212.00,3.266
213.00,3.133
214.00,3.036
215.00,2.899
216.00,2.753
217.00,2.647
218.00,2.525
219.00,2.410
220.00,2.289
221.00,2.180
222.00,2.069
223.00,1.963
224.00,1.856
225.00,1.751
226.00,1.644
227.00,1.536
228.00,1.432
229.00,1.336
230.00,1.246
231.00,1.164
232.00,1.092
233.00,1.027
234.00,0.972
235.00,0.925
236.00,0.884
237.00,0.851
238.00,0.823
239.00,0.800
240.00,0.782
241.00,0.768
242.00,0.758
243.00,0.751
244.00,0.746
245.00,0.743
246.00,0.742
247.00,0.742
248.00,0.743
249.00,0.745
250.00,0.748
251.00,0.751
252.00,0.755
253.00,0.759
254.00,0.763
255.00,0.769
256.00,0.773
257.00,0.778
258.00,0.781
259.00,0.784
260.00,0.786
261.00,0.789
262.00,0.791
263.00,0.794
264.00,0.796
265.00,0.798
266.00,0.798
267.00,0.799
268.00,0.799
269.00,0.797
270.00,0.793
271.00,0.788
272.00,0.783
273.00,0.775
274.00,0.766
275.00,0.756
276.00,0.744
277.00,0.731
278.00,0.717
279.00,0.702
280.00,0.687
281.00,0.670
282.00,0.653
283.00,0.633
284.00,0.612
285.00,0.591
286.00,0.571
287.00,0.553
288.00,0.533
289.00,0.514
290.00,0.492
291.00,0.472
292.00,0.455
293.00,0.439
294.00,0.426
295.00,0.414
296.00,0.404
297.00,0.396
298.00,0.388
299.00,0.380
300.00,0.374
301.00,0.368
302.00,0.363
303.00,0.359
304.00,0.354
305.00,0.350
306.00,0.346
307.00,0.342
308.00,0.338
309.00,0.335
310.00,0.332
311.00,0.328
312.00,0.325
313.00,0.322
314.00,0.319
315.00,0.316
316.00,0.313
317.00,0.310
318.00,0.307
319.00,0.303
320.00,0.300
321.00,0.297
322.00,0.293
323.00,0.289
324.00,0.285
325.00,0.280
326.00,0.275
327.00,0.271
328.00,0.266
329.00,0.261
330.00,0.256
331.00,0.251
332.00,0.246
333.00,0.241
334.00,0.236
335.00,0.230
336.00,0.225
337.00,0.220
338.00,0.215
339.00,0.210
340.00,0.205
341.00,0.198
342.00,0.193
343.00,0.188
344.00,0.183
345.00,0.179
346.00,0.174
347.00,0.170
348.00,0.165
349.00,0.161
350.00,0.157
351.00,0.153
352.00,0.149
353.00,0.145
354.00,0.142
355.00,0.138
356.00,0.135
357.00,0.132
358.00,0.129
359.00,0.126
360.00,0.123
361.00,0.120
362.00,0.117
363.00,0.115
364.00,0.113
365.00,0.111
366.00,0.109
367.00,0.106
368.00,0.104
369.00,0.102
370.00,0.100
371.00,0.099
372.00,0.097
373.00,0.095
374.00,0.094
375.00,0.092
376.00,0.091
377.00,0.089
378.00,0.087
379.00,0.086
380.00,0.085
381.00,0.083
382.00,0.082
383.00,0.081
384.00,0.080
385.00,0.079
386.00,0.078
387.00,0.077
388.00,0.076
389.00,0.075
390.00,0.074
391.00,0.073
392.00,0.072
393.00,0.072
394.00,0.071
395.00,0.070
396.00,0.069
397.00,0.069
398.00,0.068
399.00,0.067
400.00,0.067
401.00,0.066
402.00,0.066
403.00,0.065
404.00,0.065
405.00,0.064
406.00,0.064
407.00,0.063
408.00,0.063
409.00,0.062
410.00,0.062
411.00,0.061
412.00,0.061
413.00,0.061
414.00,0.060
415.00,0.060
416.00,0.059
417.00,0.059
418.00,0.059
419.00,0.059
420.00,0.058
421.00,0.058
422.00,0.058
423.00,0.057
424.00,0.057
425.00,0.057
426.00,0.057
427.00,0.056
428.00,0.056
429.00,0.056
430.00,0.056
431.00,0.055
432.00,0.055
433.00,0.055
434.00,0.055
435.00,0.054
436.00,0.054
437.00,0.054
438.00,0.054
439.00,0.053
440.00,0.053
441.00,0.053
442.00,0.053
443.00,0.053
444.00,0.052
445.00,0.052
446.00,0.052
447.00,0.052
448.00,0.052
449.00,0.052
450.00,0.051
451.00,0.051
452.00,0.051
453.00,0.051
454.00,0.051
455.00,0.051
456.00,0.051
457.00,0.050
458.00,0.050
459.00,0.050
460.00,0.050
461.00,0.050
462.00,0.050
463.00,0.050
464.00,0.049
465.00,0.049
466.00,0.049
467.00,0.049
468.00,0.049
469.00,0.049
470.00,0.049
471.00,0.049
472.00,0.048
473.00,0.048
474.00,0.048
475.00,0.048
476.00,0.048
477.00,0.048
478.00,0.048
479.00,0.048
480.00,0.047
481.00,0.047
482.00,0.047
483.00,0.047
484.00,0.047
485.00,0.047
486.00,0.047
487.00,0.047
488.00,0.046
489.00,0.046
490.00,0.046
491.00,0.046
492.00,0.046
493.00,0.046
494.00,0.046
495.00,0.046
496.00,0.046
497.00,0.046
498.00,0.046
499.00,0.045
500.00,0.045
501.00,0.045
502.00,0.045
503.00,0.045
504.00,0.045
505.00,0.045
506.00,0.045
507.00,0.045
508.00,0.045
509.00,0.045
510.00,0.044
511.00,0.045
512.00,0.044
513.00,0.044
514.00,0.044
515.00,0.044
516.00,0.044
517.00,0.044
518.00,0.044
519.00,0.044
520.00,0.044
521.00,0.044
522.00,0.044
523.00,0.044
524.00,0.043
525.00,0.043
526.00,0.043
527.00,0.043
528.00,0.043
529.00,0.043
530.00,0.043
531.00,0.043
532.00,0.043
533.00,0.043
534.00,0.043
535.00,0.043
536.00,0.043
537.00,0.043
538.00,0.043
539.00,0.042
540.00,0.042
541.00,0.042
542.00,0.042
543.00,0.042
544.00,0.042
545.00,0.042
546.00,0.042
547.00,0.042
548.00,0.042
549.00,0.042
550.00,0.042
551.00,0.042
552.00,0.042
553.00,0.042
554.00,0.042
555.00,0.042
556.00,0.042
557.00,0.042
558.00,0.041
559.00,0.041
560.00,0.041
561.00,0.041
562.00,0.041
563.00,0.041
564.00,0.041
565.00,0.041
566.00,0.041
567.00,0.041
568.00,0.041
569.00,0.041
570.00,0.041
571.00,0.041
572.00,0.041
573.00,0.041
574.00,0.041
575.00,0.041
576.00,0.041
577.00,0.041
578.00,0.041
579.00,0.041
580.00,0.041
581.00,0.041
582.00,0.041
583.00,0.041
584.00,0.040
585.00,0.040
586.00,0.040
587.00,0.040
588.00,0.040
589.00,0.040
590.00,0.040
591.00,0.040
592.00,0.040
593.00,0.040
594.00,0.040
595.00,0.040
596.00,0.040
597.00,0.040
598.00,0.040
599.00,0.040
600.00,0.040
601.00,0.040
602.00,0.040
603.00,0.040
604.00,0.040
605.00,0.040
606.00,0.040
607.00,0.040
608.00,0.040
609.00,0.040
610.00,0.040
611.00,0.040
612.00,0.040
613.00,0.040
614.00,0.040
615.00,0.040
616.00,0.040
617.00,0.040
618.00,0.040
619.00,0.040
620.00,0.040
621.00,0.040
622.00,0.040
623.00,0.040
624.00,0.040
625.00,0.040
626.00,0.040
627.00,0.040
628.00,0.040
629.00,0.040
630.00,0.040
631.00,0.040
632.00,0.040
633.00,0.040
634.00,0.040
635.00,0.040
636.00,0.039
637.00,0.039
638.00,0.039
639.00,0.039
640.00,0.039
641.00,0.039
642.00,0.039
643.00,0.039
644.00,0.039
645.00,0.039
646.00,0.039
647.00,0.039
648.00,0.039
649.00,0.039
650.00,0.039
651.00,0.039
652.00,0.039
653.00,0.039
654.00,0.039
655.00,0.039
656.00,0.039
657.00,0.039
658.00,0.039
659.00,0.039
660.00,0.039
661.00,0.039
662.00,0.039
663.00,0.039
664.00,0.039
665.00,0.039
666.00,0.039
667.00,0.039
668.00,0.039
669.00,0.039
670.00,0.039
671.00,0.039
672.00,0.039
673.00,0.039
674.00,0.039
675.00,0.039
676.00,0.039
677.00,0.039
678.00,0.039
679.00,0.039
680.00,0.039
681.00,0.039
682.00,0.039
683.00,0.039
684.00,0.039
685.00,0.039
686.00,0.039
687.00,0.039
688.00,0.039
689.00,0.039
690.00,0.039
691.00,0.039
692.00,0.039
693.00,0.039
694.00,0.039
695.00,0.039
696.00,0.039
697.00,0.039
698.00,0.039
699.00,0.039
700.00,0.039
701.00,0.039
702.00,0.039
703.00,0.039
704.00,0.039
705.00,0.039
706.00,0.040
707.00,0.040
708.00,0.040
709.00,0.040
710.00,0.040
711.00,0.040
712.00,0.040
713.00,0.040
714.00,0.040
715.00,0.041
716.00,0.041
717.00,0.041
718.00,0.041
719.00,0.041
720.00,0.041
721.00,0.042
722.00,0.042
723.00,0.042
724.00,0.042
725.00,0.043
726.00,0.043
727.00,0.043
728.00,0.044
729.00,0.044
730.00,0.045
731.00,0.045
732.00,0.046
733.00,0.046
734.00,0.046
735.00,0.047
736.00,0.047
737.00,0.047
738.00,0.047
739.00,0.048
740.00,0.048
741.00,0.048
742.00,0.048
743.00,0.048
744.00,0.048
745.00,0.048
746.00,0.048
747.00,0.048
748.00,0.048
749.00,0.048
750.00,0.048
751.00,0.048
752.00,0.048
753.00,0.048
754.00,0.048
755.00,0.048
756.00,0.048
757.00,0.048
758.00,0.048
759.00,0.048
760.00,0.048
761.00,0.048
762.00,0.048
763.00,0.048
764.00,0.048
765.00,0.048
766.00,0.047
767.00,0.047
768.00,0.047
769.00,0.047
770.00,0.047
771.00,0.047
772.00,0.047
773.00,0.047
774.00,0.047
775.00,0.047
776.00,0.047
777.00,0.047
778.00,0.047
779.00,0.047
780.00,0.046
781.00,0.046
782.00,0.046
783.00,0.046
784.00,0.046
785.00,0.046
786.00,0.046
787.00,0.046
788.00,0.046
789.00,0.046
790.00,0.046
791.00,0.045
792.00,0.045
793.00,0.045
794.00,0.045
795.00,0.045
796.00,0.045
797.00,0.045
798.00,0.045
799.00,0.045
800.00,0.044
801.00,0.044
802.00,0.044
803.00,0.044
804.00,0.044
805.00,0.044
806.00,0.044
807.00,0.044
808.00,0.044
809.00,0.044
810.00,0.044
811.00,0.044
812.00,0.044
813.00,0.044
814.00,0.044
815.00,0.044
816.00,0.044
817.00,0.044
818.00,0.045
819.00,0.045
820.00,0.045
821.00,0.045
822.00,0.045
823.00,0.045
824.00,0.046
825.00,0.046
826.00,0.047
827.00,0.047
828.00,0.048
829.00,0.048
830.00,0.049
831.00,0.049
832.00,0.050
833.00,0.050
834.00,0.051
835.00,0.051
836.00,0.051
837.00,0.051
838.00,0.051
839.00,0.052
840.00,0.052
841.00,0.052
842.00,0.052
843.00,0.052
844.00,0.052
845.00,0.052
846.00,0.052
847.00,0.052
848.00,0.053
849.00,0.053
850.00,0.053
851.00,0.053
852.00,0.053
853.00,0.053
854.00,0.053
855.00,0.054
856.00,0.054
857.00,0.054
858.00,0.054
859.00,0.054
860.00,0.054
861.00,0.054
862.00,0.054
863.00,0.054
864.00,0.055
865.00,0.055
866.00,0.055
867.00,0.055
868.00,0.055
869.00,0.055
870.00,0.055
871.00,0.056
872.00,0.056
873.00,0.056
874.00,0.056
875.00,0.056
876.00,0.056
877.00,0.057
878.00,0.057
879.00,0.057
880.00,0.057
881.00,0.058
882.00,0.058
883.00,0.058
884.00,0.058
885.00,0.059
886.00,0.059
887.00,0.059
888.00,0.059
889.00,0.060
890.00,0.060
891.00,0.060
892.00,0.060
893.00,0.061
894.00,0.061
895.00,0.061
896.00,0.061
897.00,0.061
898.00,0.062
899.00,0.062
900.00,0.062
