"BorealeCuivree_50x - RawData"
"Wavelength nm.","Abs."
190.00,2.810
191.00,2.878
192.00,3.165
193.00,3.209
194.00,3.142
195.00,3.142
196.00,3.459
197.00,3.420
198.00,3.287
199.00,3.525
200.00,3.537
201.00,3.724
202.00,3.676
203.00,3.382
204.00,3.461
205.00,3.470
206.00,3.496
207.00,3.705
208.00,3.583
209.00,3.686
210.00,3.442
211.00,3.491
212.00,3.495
213.00,3.465
214.00,3.389
215.00,3.322
216.00,3.233
217.00,3.128
218.00,3.057
219.00,2.873
220.00,2.771
221.00,2.648
222.00,2.529
223.00,2.405
224.00,2.275
225.00,2.153
226.00,2.025
227.00,1.896
228.00,1.770
229.00,1.657
230.00,1.550
231.00,1.451
232.00,1.365
233.00,1.287
234.00,1.221
235.00,1.164
236.00,1.117
237.00,1.077
238.00,1.045
239.00,1.019
240.00,0.999
241.00,0.983
242.00,0.973
243.00,0.966
244.00,0.962
245.00,0.960
246.00,0.961
247.00,0.963
248.00,0.967
249.00,0.971
250.00,0.977
251.00,0.983
252.00,0.990
253.00,0.997
254.00,1.004
255.00,1.011
256.00,1.018
257.00,1.024
258.00,1.028
259.00,1.031
260.00,1.033
261.00,1.035
262.00,1.037
263.00,1.040
264.00,1.043
265.00,1.045
266.00,1.044
267.00,1.043
268.00,1.042
269.00,1.037
270.00,1.031
271.00,1.025
272.00,1.016
273.00,1.006
274.00,0.994
275.00,0.980
276.00,0.964
277.00,0.946
278.00,0.927
279.00,0.906
280.00,0.885
281.00,0.862
282.00,0.839
283.00,0.812
284.00,0.785
285.00,0.756
286.00,0.730
287.00,0.705
288.00,0.678
289.00,0.652
290.00,0.623
291.00,0.597
292.00,0.573
293.00,0.551
294.00,0.534
295.00,0.518
296.00,0.505
297.00,0.493
298.00,0.482
299.00,0.472
300.00,0.464
301.00,0.456
302.00,0.449
303.00,0.442
304.00,0.437
305.00,0.431
306.00,0.426
307.00,0.421
308.00,0.416
309.00,0.411
310.00,0.407
311.00,0.403
312.00,0.399
313.00,0.394
314.00,0.390
315.00,0.387
316.00,0.383
317.00,0.379
318.00,0.374
319.00,0.369
320.00,0.365
321.00,0.360
322.00,0.355
323.00,0.349
324.00,0.344
325.00,0.338
326.00,0.332
327.00,0.326
328.00,0.319
329.00,0.312
330.00,0.306
331.00,0.299
332.00,0.293
333.00,0.285
334.00,0.278
335.00,0.272
336.00,0.265
337.00,0.259
338.00,0.252
339.00,0.246
340.00,0.239
341.00,0.232
342.00,0.225
343.00,0.219
344.00,0.213
345.00,0.208
346.00,0.202
347.00,0.197
348.00,0.192
349.00,0.186
350.00,0.181
351.00,0.177
352.00,0.172
353.00,0.168
354.00,0.164
355.00,0.160
356.00,0.156
357.00,0.153
358.00,0.149
359.00,0.146
360.00,0.142
361.00,0.139
362.00,0.136
363.00,0.134
364.00,0.131
365.00,0.129
366.00,0.126
367.00,0.124
368.00,0.122
369.00,0.120
370.00,0.118
371.00,0.116
372.00,0.114
373.00,0.112
374.00,0.110
375.00,0.108
376.00,0.107
377.00,0.105
378.00,0.104
379.00,0.102
380.00,0.100
381.00,0.099
382.00,0.097
383.00,0.096
384.00,0.095
385.00,0.094
386.00,0.092
387.00,0.091
388.00,0.090
389.00,0.089
390.00,0.088
391.00,0.087
392.00,0.086
393.00,0.085
394.00,0.084
395.00,0.083
396.00,0.082
397.00,0.082
398.00,0.081
399.00,0.080
400.00,0.079
401.00,0.078
402.00,0.078
403.00,0.077
404.00,0.076
405.00,0.076
406.00,0.075
407.00,0.075
408.00,0.074
409.00,0.073
410.00,0.073
411.00,0.072
412.00,0.072
413.00,0.071
414.00,0.071
415.00,0.070
416.00,0.070
417.00,0.069
418.00,0.069
419.00,0.069
420.00,0.068
421.00,0.068
422.00,0.067
423.00,0.067
424.00,0.067
425.00,0.066
426.00,0.066
427.00,0.065
428.00,0.065
429.00,0.065
430.00,0.064
431.00,0.064
432.00,0.064
433.00,0.063
434.00,0.063
435.00,0.063
436.00,0.062
437.00,0.062
438.00,0.062
439.00,0.061
440.00,0.061
441.00,0.061
442.00,0.061
443.00,0.060
444.00,0.060
445.00,0.060
446.00,0.060
447.00,0.059
448.00,0.059
449.00,0.059
450.00,0.059
451.00,0.058
452.00,0.058
453.00,0.058
454.00,0.058
455.00,0.057
456.00,0.057
457.00,0.057
458.00,0.057
459.00,0.057
460.00,0.056
461.00,0.056
462.00,0.056
463.00,0.056
464.00,0.056
465.00,0.055
466.00,0.055
467.00,0.055
468.00,0.055
469.00,0.055
470.00,0.054
471.00,0.054
472.00,0.054
473.00,0.054
474.00,0.054
475.00,0.054
476.00,0.053
477.00,0.053
478.00,0.053
479.00,0.053
480.00,0.053
481.00,0.052
482.00,0.052
483.00,0.052
484.00,0.052
485.00,0.052
486.00,0.052
487.00,0.051
488.00,0.051
489.00,0.051
490.00,0.051
491.00,0.051
492.00,0.051
493.00,0.051
494.00,0.050
495.00,0.050
496.00,0.050
497.00,0.050
498.00,0.050
499.00,0.050
500.00,0.050
501.00,0.049
502.00,0.049
503.00,0.049
504.00,0.049
505.00,0.049
506.00,0.049
507.00,0.049
508.00,0.049
509.00,0.049
510.00,0.048
511.00,0.048
512.00,0.048
513.00,0.048
514.00,0.048
515.00,0.048
516.00,0.048
517.00,0.048
518.00,0.047
519.00,0.047
520.00,0.047
521.00,0.047
522.00,0.047
523.00,0.047
524.00,0.047
525.00,0.047
526.00,0.047
527.00,0.047
528.00,0.046
529.00,0.046
530.00,0.046
531.00,0.046
532.00,0.046
533.00,0.046
534.00,0.046
535.00,0.046
536.00,0.046
537.00,0.046
538.00,0.046
539.00,0.045
540.00,0.045
541.00,0.045
542.00,0.045
543.00,0.045
544.00,0.045
545.00,0.045
546.00,0.045
547.00,0.045
548.00,0.045
549.00,0.045
550.00,0.045
551.00,0.045
552.00,0.044
553.00,0.044
554.00,0.044
555.00,0.044
556.00,0.044
557.00,0.044
558.00,0.044
559.00,0.044
560.00,0.044
561.00,0.044
562.00,0.044
563.00,0.044
564.00,0.044
565.00,0.044
566.00,0.044
567.00,0.043
568.00,0.043
569.00,0.043
570.00,0.043
571.00,0.043
572.00,0.043
573.00,0.043
574.00,0.043
575.00,0.043
576.00,0.043
577.00,0.043
578.00,0.043
579.00,0.043
580.00,0.043
581.00,0.043
582.00,0.043
583.00,0.043
584.00,0.043
585.00,0.043
586.00,0.043
587.00,0.043
588.00,0.043
589.00,0.043
590.00,0.043
591.00,0.042
592.00,0.042
593.00,0.042
594.00,0.042
595.00,0.042
596.00,0.042
597.00,0.042
598.00,0.042
599.00,0.042
600.00,0.042
601.00,0.042
602.00,0.042
603.00,0.042
604.00,0.042
605.00,0.042
606.00,0.042
607.00,0.042
608.00,0.042
609.00,0.042
610.00,0.042
611.00,0.042
612.00,0.042
613.00,0.042
614.00,0.042
615.00,0.042
616.00,0.042
617.00,0.042
618.00,0.042
619.00,0.042
620.00,0.042
621.00,0.042
622.00,0.042
623.00,0.042
624.00,0.042
625.00,0.041
626.00,0.041
627.00,0.041
628.00,0.041
629.00,0.041
630.00,0.041
631.00,0.041
632.00,0.041
633.00,0.041
634.00,0.041
635.00,0.041
636.00,0.041
637.00,0.041
638.00,0.041
639.00,0.041
640.00,0.041
641.00,0.041
642.00,0.041
643.00,0.041
644.00,0.041
645.00,0.041
646.00,0.041
647.00,0.041
648.00,0.041
649.00,0.041
650.00,0.041
651.00,0.041
652.00,0.041
653.00,0.041
654.00,0.041
655.00,0.041
656.00,0.041
657.00,0.041
658.00,0.041
659.00,0.041
660.00,0.041
661.00,0.041
662.00,0.041
663.00,0.041
664.00,0.041
665.00,0.041
666.00,0.041
667.00,0.041
668.00,0.041
669.00,0.041
670.00,0.041
671.00,0.041
672.00,0.041
673.00,0.040
674.00,0.040
675.00,0.040
676.00,0.040
677.00,0.040
678.00,0.040
679.00,0.040
680.00,0.040
681.00,0.040
682.00,0.040
683.00,0.040
684.00,0.040
685.00,0.040
686.00,0.040
687.00,0.040
688.00,0.040
689.00,0.040
690.00,0.040
691.00,0.040
692.00,0.040
693.00,0.040
694.00,0.040
695.00,0.040
696.00,0.040
697.00,0.040
698.00,0.040
699.00,0.040
700.00,0.041
701.00,0.041
702.00,0.041
703.00,0.041
704.00,0.041
705.00,0.041
706.00,0.041
707.00,0.041
708.00,0.041
709.00,0.041
710.00,0.041
711.00,0.041
712.00,0.041
713.00,0.042
714.00,0.042
715.00,0.042
716.00,0.042
717.00,0.042
718.00,0.042
719.00,0.043
720.00,0.043
721.00,0.043
722.00,0.043
723.00,0.043
724.00,0.044
725.00,0.044
726.00,0.044
727.00,0.044
728.00,0.045
729.00,0.045
730.00,0.046
731.00,0.046
732.00,0.047
733.00,0.047
734.00,0.048
735.00,0.048
736.00,0.048
737.00,0.049
738.00,0.049
739.00,0.049
740.00,0.049
741.00,0.049
742.00,0.049
743.00,0.049
744.00,0.049
745.00,0.049
746.00,0.049
747.00,0.049
748.00,0.049
749.00,0.049
750.00,0.049
751.00,0.049
752.00,0.049
753.00,0.049
754.00,0.049
755.00,0.049
756.00,0.049
757.00,0.049
758.00,0.049
759.00,0.049
760.00,0.049
761.00,0.049
762.00,0.049
763.00,0.049
764.00,0.049
765.00,0.049
766.00,0.049
767.00,0.049
768.00,0.048
769.00,0.048
770.00,0.048
771.00,0.048
772.00,0.048
773.00,0.048
774.00,0.048
775.00,0.048
776.00,0.048
777.00,0.048
778.00,0.048
779.00,0.048
780.00,0.048
781.00,0.048
782.00,0.047
783.00,0.047
784.00,0.047
785.00,0.047
786.00,0.047
787.00,0.047
788.00,0.047
789.00,0.047
790.00,0.047
791.00,0.046
792.00,0.046
793.00,0.046
794.00,0.046
795.00,0.046
796.00,0.046
797.00,0.046
798.00,0.046
799.00,0.046
800.00,0.045
801.00,0.045
802.00,0.045
803.00,0.045
804.00,0.045
805.00,0.045
806.00,0.045
807.00,0.045
808.00,0.045
809.00,0.045
810.00,0.045
811.00,0.045
812.00,0.045
813.00,0.045
814.00,0.045
815.00,0.045
816.00,0.045
817.00,0.046
818.00,0.046
819.00,0.046
820.00,0.046
821.00,0.046
822.00,0.046
823.00,0.046
824.00,0.047
825.00,0.047
826.00,0.048
827.00,0.048
828.00,0.049
829.00,0.049
830.00,0.050
831.00,0.050
832.00,0.051
833.00,0.051
834.00,0.051
835.00,0.052
836.00,0.052
837.00,0.052
838.00,0.052
839.00,0.052
840.00,0.052
841.00,0.053
842.00,0.053
843.00,0.053
844.00,0.053
845.00,0.053
846.00,0.053
847.00,0.053
848.00,0.053
849.00,0.054
850.00,0.054
851.00,0.054
852.00,0.054
853.00,0.054
854.00,0.054
855.00,0.054
856.00,0.054
857.00,0.054
858.00,0.055
859.00,0.055
860.00,0.055
861.00,0.055
862.00,0.055
863.00,0.055
864.00,0.055
865.00,0.055
866.00,0.055
867.00,0.056
868.00,0.056
869.00,0.056
870.00,0.056
871.00,0.056
872.00,0.056
873.00,0.056
874.00,0.057
875.00,0.057
876.00,0.057
877.00,0.057
878.00,0.057
879.00,0.058
880.00,0.058
881.00,0.058
882.00,0.058
883.00,0.059
884.00,0.059
885.00,0.059
886.00,0.059
887.00,0.060
888.00,0.060
889.00,0.060
890.00,0.060
891.00,0.061
892.00,0.061
893.00,0.061
894.00,0.061
895.00,0.061
896.00,0.062
897.00,0.062
898.00,0.062
899.00,0.062
900.00,0.063
