"BrasseurIllimiteSaisonRosemont50x - RawData"
"Wavelength nm.","Abs."
190.00,2.950
191.00,3.246
192.00,3.618
193.00,3.302
194.00,3.344
195.00,3.482
196.00,3.569
197.00,3.633
198.00,3.355
199.00,3.458
200.00,3.655
201.00,3.747
202.00,3.652
203.00,3.513
204.00,3.460
205.00,3.322
206.00,3.164
207.00,3.081
208.00,2.924
209.00,2.800
210.00,2.653
211.00,2.534
212.00,2.421
213.00,2.310
214.00,2.196
215.00,2.091
216.00,1.992
217.00,1.893
218.00,1.801
219.00,1.707
220.00,1.616
221.00,1.536
222.00,1.459
223.00,1.385
224.00,1.310
225.00,1.239
226.00,1.170
227.00,1.100
228.00,1.033
229.00,0.972
230.00,0.915
231.00,0.864
232.00,0.819
233.00,0.779
234.00,0.745
235.00,0.717
236.00,0.693
237.00,0.674
238.00,0.658
239.00,0.647
240.00,0.639
241.00,0.633
242.00,0.631
243.00,0.630
244.00,0.631
245.00,0.633
246.00,0.636
247.00,0.640
248.00,0.645
249.00,0.649
250.00,0.654
251.00,0.660
252.00,0.665
253.00,0.670
254.00,0.674
255.00,0.678
256.00,0.682
257.00,0.685
258.00,0.686
259.00,0.685
260.00,0.684
261.00,0.683
262.00,0.682
263.00,0.681
264.00,0.679
265.00,0.678
266.00,0.674
267.00,0.671
268.00,0.666
269.00,0.659
270.00,0.652
271.00,0.644
272.00,0.635
273.00,0.625
274.00,0.614
275.00,0.602
276.00,0.589
277.00,0.575
278.00,0.561
279.00,0.546
280.00,0.530
281.00,0.515
282.00,0.499
283.00,0.481
284.00,0.464
285.00,0.446
286.00,0.429
287.00,0.412
288.00,0.395
289.00,0.378
290.00,0.361
291.00,0.345
292.00,0.330
293.00,0.317
294.00,0.306
295.00,0.297
296.00,0.289
297.00,0.282
298.00,0.275
299.00,0.269
300.00,0.264
301.00,0.260
302.00,0.256
303.00,0.252
304.00,0.249
305.00,0.246
306.00,0.244
307.00,0.241
308.00,0.239
309.00,0.238
310.00,0.236
311.00,0.234
312.00,0.232
313.00,0.231
314.00,0.229
315.00,0.228
316.00,0.226
317.00,0.225
318.00,0.223
319.00,0.221
320.00,0.220
321.00,0.218
322.00,0.216
323.00,0.214
324.00,0.212
325.00,0.209
326.00,0.207
327.00,0.204
328.00,0.201
329.00,0.198
330.00,0.195
331.00,0.193
332.00,0.189
333.00,0.186
334.00,0.182
335.00,0.180
336.00,0.176
337.00,0.173
338.00,0.170
339.00,0.167
340.00,0.164
341.00,0.159
342.00,0.156
343.00,0.153
344.00,0.150
345.00,0.147
346.00,0.144
347.00,0.141
348.00,0.138
349.00,0.135
350.00,0.132
351.00,0.129
352.00,0.126
353.00,0.124
354.00,0.121
355.00,0.118
356.00,0.116
357.00,0.114
358.00,0.112
359.00,0.110
360.00,0.108
361.00,0.106
362.00,0.104
363.00,0.102
364.00,0.100
365.00,0.099
366.00,0.097
367.00,0.096
368.00,0.094
369.00,0.093
370.00,0.092
371.00,0.090
372.00,0.089
373.00,0.088
374.00,0.087
375.00,0.086
376.00,0.084
377.00,0.083
378.00,0.082
379.00,0.081
380.00,0.080
381.00,0.079
382.00,0.079
383.00,0.078
384.00,0.077
385.00,0.076
386.00,0.075
387.00,0.075
388.00,0.074
389.00,0.073
390.00,0.073
391.00,0.072
392.00,0.072
393.00,0.071
394.00,0.070
395.00,0.070
396.00,0.069
397.00,0.069
398.00,0.068
399.00,0.068
400.00,0.068
401.00,0.067
402.00,0.067
403.00,0.066
404.00,0.066
405.00,0.066
406.00,0.065
407.00,0.065
408.00,0.065
409.00,0.064
410.00,0.064
411.00,0.064
412.00,0.063
413.00,0.063
414.00,0.063
415.00,0.063
416.00,0.062
417.00,0.062
418.00,0.062
419.00,0.062
420.00,0.061
421.00,0.061
422.00,0.061
423.00,0.061
424.00,0.061
425.00,0.060
426.00,0.060
427.00,0.060
428.00,0.060
429.00,0.059
430.00,0.059
431.00,0.059
432.00,0.059
433.00,0.059
434.00,0.059
435.00,0.059
436.00,0.058
437.00,0.058
438.00,0.058
439.00,0.058
440.00,0.058
441.00,0.058
442.00,0.058
443.00,0.057
444.00,0.057
445.00,0.057
446.00,0.057
447.00,0.057
448.00,0.057
449.00,0.057
450.00,0.057
451.00,0.056
452.00,0.056
453.00,0.056
454.00,0.056
455.00,0.056
456.00,0.056
457.00,0.056
458.00,0.056
459.00,0.056
460.00,0.056
461.00,0.055
462.00,0.055
463.00,0.055
464.00,0.055
465.00,0.055
466.00,0.055
467.00,0.055
468.00,0.055
469.00,0.055
470.00,0.055
471.00,0.055
472.00,0.054
473.00,0.054
474.00,0.054
475.00,0.054
476.00,0.054
477.00,0.054
478.00,0.054
479.00,0.054
480.00,0.054
481.00,0.054
482.00,0.054
483.00,0.053
484.00,0.053
485.00,0.053
486.00,0.053
487.00,0.053
488.00,0.053
489.00,0.053
490.00,0.053
491.00,0.053
492.00,0.053
493.00,0.053
494.00,0.053
495.00,0.053
496.00,0.052
497.00,0.052
498.00,0.052
499.00,0.052
500.00,0.052
501.00,0.052
502.00,0.052
503.00,0.052
504.00,0.052
505.00,0.052
506.00,0.052
507.00,0.052
508.00,0.051
509.00,0.051
510.00,0.051
511.00,0.051
512.00,0.051
513.00,0.051
514.00,0.051
515.00,0.051
516.00,0.051
517.00,0.051
518.00,0.051
519.00,0.051
520.00,0.051
521.00,0.051
522.00,0.050
523.00,0.050
524.00,0.050
525.00,0.050
526.00,0.050
527.00,0.050
528.00,0.050
529.00,0.050
530.00,0.050
531.00,0.050
532.00,0.050
533.00,0.050
534.00,0.050
535.00,0.050
536.00,0.050
537.00,0.050
538.00,0.049
539.00,0.049
540.00,0.049
541.00,0.049
542.00,0.049
543.00,0.049
544.00,0.049
545.00,0.049
546.00,0.049
547.00,0.049
548.00,0.049
549.00,0.049
550.00,0.049
551.00,0.049
552.00,0.049
553.00,0.048
554.00,0.048
555.00,0.048
556.00,0.048
557.00,0.048
558.00,0.048
559.00,0.048
560.00,0.048
561.00,0.048
562.00,0.048
563.00,0.048
564.00,0.048
565.00,0.048
566.00,0.048
567.00,0.048
568.00,0.048
569.00,0.048
570.00,0.047
571.00,0.047
572.00,0.047
573.00,0.047
574.00,0.047
575.00,0.047
576.00,0.047
577.00,0.047
578.00,0.047
579.00,0.047
580.00,0.047
581.00,0.047
582.00,0.047
583.00,0.047
584.00,0.047
585.00,0.047
586.00,0.047
587.00,0.047
588.00,0.047
589.00,0.047
590.00,0.047
591.00,0.047
592.00,0.047
593.00,0.047
594.00,0.047
595.00,0.047
596.00,0.047
597.00,0.047
598.00,0.047
599.00,0.047
600.00,0.047
601.00,0.047
602.00,0.047
603.00,0.047
604.00,0.047
605.00,0.047
606.00,0.047
607.00,0.046
608.00,0.046
609.00,0.046
610.00,0.046
611.00,0.046
612.00,0.046
613.00,0.046
614.00,0.046
615.00,0.046
616.00,0.046
617.00,0.046
618.00,0.046
619.00,0.046
620.00,0.046
621.00,0.046
622.00,0.046
623.00,0.046
624.00,0.046
625.00,0.046
626.00,0.046
627.00,0.046
628.00,0.045
629.00,0.046
630.00,0.045
631.00,0.045
632.00,0.045
633.00,0.045
634.00,0.045
635.00,0.045
636.00,0.045
637.00,0.045
638.00,0.045
639.00,0.045
640.00,0.045
641.00,0.045
642.00,0.045
643.00,0.045
644.00,0.045
645.00,0.045
646.00,0.045
647.00,0.045
648.00,0.045
649.00,0.045
650.00,0.045
651.00,0.045
652.00,0.045
653.00,0.045
654.00,0.045
655.00,0.045
656.00,0.045
657.00,0.045
658.00,0.045
659.00,0.045
660.00,0.045
661.00,0.045
662.00,0.045
663.00,0.045
664.00,0.045
665.00,0.045
666.00,0.045
667.00,0.044
668.00,0.045
669.00,0.045
670.00,0.045
671.00,0.044
672.00,0.045
673.00,0.044
674.00,0.044
675.00,0.044
676.00,0.044
677.00,0.044
678.00,0.044
679.00,0.044
680.00,0.044
681.00,0.044
682.00,0.044
683.00,0.044
684.00,0.044
685.00,0.044
686.00,0.044
687.00,0.044
688.00,0.044
689.00,0.044
690.00,0.044
691.00,0.044
692.00,0.044
693.00,0.044
694.00,0.044
695.00,0.044
696.00,0.044
697.00,0.044
698.00,0.044
699.00,0.044
700.00,0.044
701.00,0.044
702.00,0.044
703.00,0.044
704.00,0.044
705.00,0.044
706.00,0.045
707.00,0.045
708.00,0.045
709.00,0.045
710.00,0.045
711.00,0.045
712.00,0.045
713.00,0.045
714.00,0.045
715.00,0.045
716.00,0.046
717.00,0.046
718.00,0.046
719.00,0.046
720.00,0.046
721.00,0.047
722.00,0.047
723.00,0.047
724.00,0.047
725.00,0.047
726.00,0.047
727.00,0.048
728.00,0.048
729.00,0.049
730.00,0.049
731.00,0.050
732.00,0.050
733.00,0.051
734.00,0.051
735.00,0.051
736.00,0.052
737.00,0.052
738.00,0.052
739.00,0.052
740.00,0.052
741.00,0.052
742.00,0.052
743.00,0.052
744.00,0.052
745.00,0.052
746.00,0.052
747.00,0.052
748.00,0.052
749.00,0.052
750.00,0.052
751.00,0.052
752.00,0.052
753.00,0.052
754.00,0.052
755.00,0.052
756.00,0.052
757.00,0.052
758.00,0.052
759.00,0.052
760.00,0.052
761.00,0.052
762.00,0.052
763.00,0.052
764.00,0.052
765.00,0.052
766.00,0.052
767.00,0.052
768.00,0.052
769.00,0.052
770.00,0.052
771.00,0.052
772.00,0.051
773.00,0.051
774.00,0.051
775.00,0.051
776.00,0.051
777.00,0.051
778.00,0.051
779.00,0.051
780.00,0.051
781.00,0.051
782.00,0.050
783.00,0.050
784.00,0.050
785.00,0.050
786.00,0.050
787.00,0.050
788.00,0.050
789.00,0.050
790.00,0.050
791.00,0.050
792.00,0.050
793.00,0.049
794.00,0.049
795.00,0.049
796.00,0.049
797.00,0.049
798.00,0.049
799.00,0.049
800.00,0.049
801.00,0.049
802.00,0.049
803.00,0.048
804.00,0.048
805.00,0.048
806.00,0.048
807.00,0.048
808.00,0.048
809.00,0.048
810.00,0.048
811.00,0.048
812.00,0.048
813.00,0.048
814.00,0.048
815.00,0.048
816.00,0.048
817.00,0.048
818.00,0.048
819.00,0.049
820.00,0.049
821.00,0.049
822.00,0.049
823.00,0.049
824.00,0.050
825.00,0.050
826.00,0.051
827.00,0.051
828.00,0.051
829.00,0.052
830.00,0.053
831.00,0.053
832.00,0.053
833.00,0.054
834.00,0.054
835.00,0.054
836.00,0.055
837.00,0.055
838.00,0.055
839.00,0.055
840.00,0.055
841.00,0.055
842.00,0.055
843.00,0.056
844.00,0.056
845.00,0.056
846.00,0.056
847.00,0.056
848.00,0.056
849.00,0.056
850.00,0.056
851.00,0.056
852.00,0.057
853.00,0.057
854.00,0.057
855.00,0.057
856.00,0.057
857.00,0.057
858.00,0.057
859.00,0.057
860.00,0.057
861.00,0.057
862.00,0.058
863.00,0.058
864.00,0.058
865.00,0.058
866.00,0.058
867.00,0.058
868.00,0.058
869.00,0.058
870.00,0.059
871.00,0.059
872.00,0.059
873.00,0.059
874.00,0.059
875.00,0.059
876.00,0.060
877.00,0.060
878.00,0.060
879.00,0.060
880.00,0.060
881.00,0.061
882.00,0.061
883.00,0.061
884.00,0.061
885.00,0.062
886.00,0.062
887.00,0.062
888.00,0.062
889.00,0.062
890.00,0.063
891.00,0.063
892.00,0.063
893.00,0.063
894.00,0.064
895.00,0.064
896.00,0.064
897.00,0.064
898.00,0.065
899.00,0.065
900.00,0.065
