"BVMBlonde_25x - RawData"
"Wavelength nm.","Abs."
190.00,2.993
191.00,3.280
192.00,3.358
193.00,3.147
194.00,3.421
195.00,3.523
196.00,3.438
197.00,3.484
198.00,3.613
199.00,3.435
200.00,3.723
201.00,3.686
202.00,3.605
203.00,3.579
204.00,3.780
205.00,3.742
206.00,3.923
207.00,3.903
208.00,3.848
209.00,3.790
210.00,3.824
211.00,3.857
212.00,3.766
213.00,3.731
214.00,3.621
215.00,3.535
216.00,3.484
217.00,3.287
218.00,3.177
219.00,3.017
220.00,2.905
221.00,2.794
222.00,2.642
223.00,2.517
224.00,2.371
225.00,2.243
226.00,2.113
227.00,1.982
228.00,1.854
229.00,1.737
230.00,1.628
231.00,1.530
232.00,1.443
233.00,1.366
234.00,1.300
235.00,1.243
236.00,1.195
237.00,1.155
238.00,1.124
239.00,1.099
240.00,1.080
241.00,1.066
242.00,1.058
243.00,1.054
244.00,1.053
245.00,1.054
246.00,1.058
247.00,1.063
248.00,1.069
249.00,1.076
250.00,1.084
251.00,1.093
252.00,1.102
253.00,1.111
254.00,1.120
255.00,1.128
256.00,1.138
257.00,1.143
258.00,1.147
259.00,1.149
260.00,1.150
261.00,1.151
262.00,1.153
263.00,1.155
264.00,1.156
265.00,1.157
266.00,1.156
267.00,1.154
268.00,1.150
269.00,1.144
270.00,1.136
271.00,1.127
272.00,1.117
273.00,1.104
274.00,1.090
275.00,1.074
276.00,1.056
277.00,1.036
278.00,1.014
279.00,0.991
280.00,0.967
281.00,0.943
282.00,0.917
283.00,0.889
284.00,0.860
285.00,0.830
286.00,0.801
287.00,0.773
288.00,0.743
289.00,0.714
290.00,0.683
291.00,0.652
292.00,0.626
293.00,0.601
294.00,0.581
295.00,0.562
296.00,0.546
297.00,0.532
298.00,0.518
299.00,0.505
300.00,0.495
301.00,0.484
302.00,0.476
303.00,0.468
304.00,0.461
305.00,0.455
306.00,0.449
307.00,0.443
308.00,0.438
309.00,0.434
310.00,0.429
311.00,0.425
312.00,0.421
313.00,0.417
314.00,0.414
315.00,0.409
316.00,0.406
317.00,0.402
318.00,0.398
319.00,0.393
320.00,0.389
321.00,0.384
322.00,0.379
323.00,0.373
324.00,0.367
325.00,0.361
326.00,0.355
327.00,0.349
328.00,0.341
329.00,0.334
330.00,0.327
331.00,0.319
332.00,0.312
333.00,0.304
334.00,0.296
335.00,0.289
336.00,0.281
337.00,0.274
338.00,0.265
339.00,0.258
340.00,0.251
341.00,0.242
342.00,0.234
343.00,0.226
344.00,0.219
345.00,0.212
346.00,0.206
347.00,0.200
348.00,0.193
349.00,0.187
350.00,0.181
351.00,0.175
352.00,0.169
353.00,0.164
354.00,0.159
355.00,0.154
356.00,0.150
357.00,0.145
358.00,0.141
359.00,0.136
360.00,0.133
361.00,0.129
362.00,0.126
363.00,0.122
364.00,0.120
365.00,0.116
366.00,0.113
367.00,0.111
368.00,0.108
369.00,0.106
370.00,0.103
371.00,0.101
372.00,0.099
373.00,0.097
374.00,0.095
375.00,0.093
376.00,0.091
377.00,0.089
378.00,0.088
379.00,0.086
380.00,0.084
381.00,0.083
382.00,0.081
383.00,0.080
384.00,0.079
385.00,0.078
386.00,0.077
387.00,0.076
388.00,0.074
389.00,0.073
390.00,0.072
391.00,0.072
392.00,0.070
393.00,0.069
394.00,0.069
395.00,0.068
396.00,0.067
397.00,0.066
398.00,0.066
399.00,0.065
400.00,0.064
401.00,0.064
402.00,0.063
403.00,0.063
404.00,0.062
405.00,0.062
406.00,0.061
407.00,0.061
408.00,0.060
409.00,0.060
410.00,0.059
411.00,0.059
412.00,0.058
413.00,0.058
414.00,0.058
415.00,0.057
416.00,0.057
417.00,0.057
418.00,0.056
419.00,0.056
420.00,0.056
421.00,0.055
422.00,0.055
423.00,0.055
424.00,0.055
425.00,0.054
426.00,0.054
427.00,0.054
428.00,0.053
429.00,0.053
430.00,0.053
431.00,0.053
432.00,0.052
433.00,0.052
434.00,0.052
435.00,0.052
436.00,0.051
437.00,0.051
438.00,0.051
439.00,0.051
440.00,0.051
441.00,0.051
442.00,0.050
443.00,0.050
444.00,0.050
445.00,0.050
446.00,0.050
447.00,0.049
448.00,0.049
449.00,0.049
450.00,0.049
451.00,0.049
452.00,0.049
453.00,0.048
454.00,0.048
455.00,0.048
456.00,0.048
457.00,0.048
458.00,0.048
459.00,0.047
460.00,0.047
461.00,0.047
462.00,0.047
463.00,0.047
464.00,0.047
465.00,0.046
466.00,0.046
467.00,0.046
468.00,0.046
469.00,0.046
470.00,0.046
471.00,0.046
472.00,0.045
473.00,0.045
474.00,0.045
475.00,0.045
476.00,0.045
477.00,0.045
478.00,0.045
479.00,0.044
480.00,0.044
481.00,0.044
482.00,0.044
483.00,0.044
484.00,0.044
485.00,0.044
486.00,0.044
487.00,0.043
488.00,0.043
489.00,0.043
490.00,0.043
491.00,0.043
492.00,0.043
493.00,0.043
494.00,0.043
495.00,0.043
496.00,0.043
497.00,0.042
498.00,0.042
499.00,0.042
500.00,0.042
501.00,0.042
502.00,0.042
503.00,0.042
504.00,0.042
505.00,0.042
506.00,0.042
507.00,0.042
508.00,0.041
509.00,0.041
510.00,0.041
511.00,0.041
512.00,0.041
513.00,0.041
514.00,0.041
515.00,0.041
516.00,0.041
517.00,0.041
518.00,0.041
519.00,0.041
520.00,0.041
521.00,0.040
522.00,0.040
523.00,0.040
524.00,0.040
525.00,0.040
526.00,0.040
527.00,0.040
528.00,0.040
529.00,0.040
530.00,0.040
531.00,0.040
532.00,0.040
533.00,0.040
534.00,0.040
535.00,0.040
536.00,0.040
537.00,0.040
538.00,0.040
539.00,0.039
540.00,0.039
541.00,0.039
542.00,0.039
543.00,0.039
544.00,0.039
545.00,0.039
546.00,0.039
547.00,0.039
548.00,0.039
549.00,0.039
550.00,0.039
551.00,0.039
552.00,0.039
553.00,0.039
554.00,0.039
555.00,0.039
556.00,0.039
557.00,0.039
558.00,0.039
559.00,0.039
560.00,0.038
561.00,0.038
562.00,0.038
563.00,0.038
564.00,0.038
565.00,0.038
566.00,0.038
567.00,0.038
568.00,0.038
569.00,0.038
570.00,0.038
571.00,0.038
572.00,0.038
573.00,0.038
574.00,0.038
575.00,0.038
576.00,0.038
577.00,0.038
578.00,0.038
579.00,0.038
580.00,0.038
581.00,0.038
582.00,0.038
583.00,0.038
584.00,0.038
585.00,0.038
586.00,0.038
587.00,0.038
588.00,0.038
589.00,0.038
590.00,0.038
591.00,0.038
592.00,0.038
593.00,0.038
594.00,0.038
595.00,0.038
596.00,0.038
597.00,0.038
598.00,0.038
599.00,0.038
600.00,0.038
601.00,0.038
602.00,0.038
603.00,0.038
604.00,0.038
605.00,0.038
606.00,0.038
607.00,0.038
608.00,0.038
609.00,0.038
610.00,0.038
611.00,0.038
612.00,0.038
613.00,0.038
614.00,0.038
615.00,0.037
616.00,0.037
617.00,0.037
618.00,0.037
619.00,0.038
620.00,0.037
621.00,0.037
622.00,0.037
623.00,0.037
624.00,0.037
625.00,0.037
626.00,0.037
627.00,0.037
628.00,0.037
629.00,0.037
630.00,0.037
631.00,0.037
632.00,0.037
633.00,0.037
634.00,0.037
635.00,0.037
636.00,0.037
637.00,0.037
638.00,0.037
639.00,0.037
640.00,0.037
641.00,0.037
642.00,0.037
643.00,0.037
644.00,0.037
645.00,0.037
646.00,0.037
647.00,0.037
648.00,0.037
649.00,0.037
650.00,0.037
651.00,0.037
652.00,0.037
653.00,0.037
654.00,0.037
655.00,0.037
656.00,0.037
657.00,0.037
658.00,0.037
659.00,0.037
660.00,0.037
661.00,0.037
662.00,0.037
663.00,0.037
664.00,0.037
665.00,0.037
666.00,0.037
667.00,0.037
668.00,0.037
669.00,0.037
670.00,0.037
671.00,0.037
672.00,0.037
673.00,0.037
674.00,0.037
675.00,0.037
676.00,0.037
677.00,0.037
678.00,0.037
679.00,0.037
680.00,0.037
681.00,0.037
682.00,0.037
683.00,0.037
684.00,0.037
685.00,0.037
686.00,0.037
687.00,0.037
688.00,0.037
689.00,0.037
690.00,0.037
691.00,0.037
692.00,0.037
693.00,0.037
694.00,0.037
695.00,0.037
696.00,0.037
697.00,0.037
698.00,0.037
699.00,0.037
700.00,0.038
701.00,0.038
702.00,0.038
703.00,0.038
704.00,0.038
705.00,0.038
706.00,0.038
707.00,0.038
708.00,0.038
709.00,0.038
710.00,0.038
711.00,0.038
712.00,0.038
713.00,0.039
714.00,0.039
715.00,0.039
716.00,0.039
717.00,0.039
718.00,0.040
719.00,0.040
720.00,0.040
721.00,0.040
722.00,0.040
723.00,0.040
724.00,0.041
725.00,0.041
726.00,0.041
727.00,0.042
728.00,0.042
729.00,0.042
730.00,0.043
731.00,0.043
732.00,0.044
733.00,0.044
734.00,0.045
735.00,0.045
736.00,0.045
737.00,0.046
738.00,0.046
739.00,0.046
740.00,0.046
741.00,0.046
742.00,0.046
743.00,0.046
744.00,0.046
745.00,0.046
746.00,0.046
747.00,0.046
748.00,0.046
749.00,0.046
750.00,0.046
751.00,0.046
752.00,0.047
753.00,0.046
754.00,0.046
755.00,0.046
756.00,0.046
757.00,0.046
758.00,0.046
759.00,0.046
760.00,0.047
761.00,0.046
762.00,0.046
763.00,0.046
764.00,0.046
765.00,0.046
766.00,0.046
767.00,0.046
768.00,0.046
769.00,0.046
770.00,0.046
771.00,0.046
772.00,0.046
773.00,0.046
774.00,0.046
775.00,0.046
776.00,0.046
777.00,0.046
778.00,0.046
779.00,0.045
780.00,0.045
781.00,0.045
782.00,0.045
783.00,0.045
784.00,0.045
785.00,0.045
786.00,0.045
787.00,0.045
788.00,0.045
789.00,0.044
790.00,0.044
791.00,0.044
792.00,0.044
793.00,0.044
794.00,0.044
795.00,0.044
796.00,0.044
797.00,0.044
798.00,0.044
799.00,0.043
800.00,0.043
801.00,0.043
802.00,0.043
803.00,0.043
804.00,0.043
805.00,0.043
806.00,0.043
807.00,0.043
808.00,0.043
809.00,0.043
810.00,0.043
811.00,0.043
812.00,0.043
813.00,0.043
814.00,0.043
815.00,0.043
816.00,0.043
817.00,0.043
818.00,0.044
819.00,0.044
820.00,0.044
821.00,0.044
822.00,0.044
823.00,0.044
824.00,0.045
825.00,0.045
826.00,0.045
827.00,0.046
828.00,0.046
829.00,0.047
830.00,0.048
831.00,0.048
832.00,0.049
833.00,0.049
834.00,0.049
835.00,0.050
836.00,0.050
837.00,0.050
838.00,0.050
839.00,0.050
840.00,0.050
841.00,0.050
842.00,0.050
843.00,0.051
844.00,0.051
845.00,0.051
846.00,0.051
847.00,0.051
848.00,0.051
849.00,0.051
850.00,0.051
851.00,0.052
852.00,0.052
853.00,0.052
854.00,0.052
855.00,0.052
856.00,0.052
857.00,0.052
858.00,0.052
859.00,0.052
860.00,0.053
861.00,0.053
862.00,0.053
863.00,0.053
864.00,0.053
865.00,0.053
866.00,0.053
867.00,0.053
868.00,0.054
869.00,0.054
870.00,0.054
871.00,0.054
872.00,0.054
873.00,0.054
874.00,0.054
875.00,0.055
876.00,0.055
877.00,0.055
878.00,0.055
879.00,0.056
880.00,0.056
881.00,0.056
882.00,0.056
883.00,0.057
884.00,0.057
885.00,0.057
886.00,0.057
887.00,0.057
888.00,0.058
889.00,0.058
890.00,0.058
891.00,0.058
892.00,0.059
893.00,0.059
894.00,0.059
895.00,0.059
896.00,0.060
897.00,0.060
898.00,0.060
899.00,0.060
900.00,0.060
