"BWSeinDEsprit_50x - RawData"
"Wavelength nm.","Abs."
190.00,3.412
191.00,3.630
192.00,3.291
193.00,3.571
194.00,3.855
195.00,3.722
196.00,3.757
197.00,3.591
198.00,3.721
199.00,3.523
200.00,3.655
201.00,3.722
202.00,3.628
203.00,3.446
204.00,3.611
205.00,3.475
206.00,3.319
207.00,3.167
208.00,3.093
209.00,2.944
210.00,2.789
211.00,2.669
212.00,2.556
213.00,2.422
214.00,2.300
215.00,2.195
216.00,2.091
217.00,1.985
218.00,1.880
219.00,1.779
220.00,1.683
221.00,1.595
222.00,1.510
223.00,1.427
224.00,1.346
225.00,1.269
226.00,1.191
227.00,1.112
228.00,1.036
229.00,0.966
230.00,0.899
231.00,0.839
232.00,0.787
233.00,0.740
234.00,0.699
235.00,0.664
236.00,0.634
237.00,0.610
238.00,0.590
239.00,0.574
240.00,0.561
241.00,0.552
242.00,0.545
243.00,0.541
244.00,0.539
245.00,0.538
246.00,0.539
247.00,0.540
248.00,0.542
249.00,0.544
250.00,0.547
251.00,0.550
252.00,0.554
253.00,0.558
254.00,0.561
255.00,0.565
256.00,0.568
257.00,0.571
258.00,0.573
259.00,0.574
260.00,0.575
261.00,0.576
262.00,0.576
263.00,0.577
264.00,0.578
265.00,0.578
266.00,0.578
267.00,0.577
268.00,0.575
269.00,0.573
270.00,0.569
271.00,0.565
272.00,0.561
273.00,0.555
274.00,0.549
275.00,0.542
276.00,0.535
277.00,0.527
278.00,0.517
279.00,0.507
280.00,0.497
281.00,0.487
282.00,0.476
283.00,0.464
284.00,0.451
285.00,0.437
286.00,0.423
287.00,0.410
288.00,0.396
289.00,0.383
290.00,0.369
291.00,0.355
292.00,0.342
293.00,0.331
294.00,0.321
295.00,0.312
296.00,0.304
297.00,0.296
298.00,0.289
299.00,0.282
300.00,0.276
301.00,0.270
302.00,0.265
303.00,0.260
304.00,0.256
305.00,0.252
306.00,0.249
307.00,0.246
308.00,0.242
309.00,0.240
310.00,0.238
311.00,0.235
312.00,0.233
313.00,0.231
314.00,0.228
315.00,0.227
316.00,0.224
317.00,0.222
318.00,0.220
319.00,0.218
320.00,0.215
321.00,0.213
322.00,0.210
323.00,0.208
324.00,0.205
325.00,0.202
326.00,0.199
327.00,0.196
328.00,0.193
329.00,0.190
330.00,0.186
331.00,0.183
332.00,0.179
333.00,0.176
334.00,0.172
335.00,0.168
336.00,0.165
337.00,0.162
338.00,0.158
339.00,0.155
340.00,0.151
341.00,0.146
342.00,0.143
343.00,0.139
344.00,0.136
345.00,0.132
346.00,0.129
347.00,0.126
348.00,0.123
349.00,0.120
350.00,0.117
351.00,0.114
352.00,0.111
353.00,0.109
354.00,0.106
355.00,0.104
356.00,0.101
357.00,0.099
358.00,0.097
359.00,0.094
360.00,0.092
361.00,0.090
362.00,0.089
363.00,0.087
364.00,0.085
365.00,0.084
366.00,0.082
367.00,0.081
368.00,0.079
369.00,0.078
370.00,0.076
371.00,0.075
372.00,0.074
373.00,0.073
374.00,0.072
375.00,0.071
376.00,0.070
377.00,0.069
378.00,0.068
379.00,0.067
380.00,0.066
381.00,0.065
382.00,0.065
383.00,0.064
384.00,0.063
385.00,0.063
386.00,0.062
387.00,0.061
388.00,0.061
389.00,0.060
390.00,0.060
391.00,0.059
392.00,0.059
393.00,0.058
394.00,0.058
395.00,0.057
396.00,0.057
397.00,0.057
398.00,0.056
399.00,0.056
400.00,0.055
401.00,0.055
402.00,0.055
403.00,0.055
404.00,0.054
405.00,0.054
406.00,0.054
407.00,0.053
408.00,0.053
409.00,0.053
410.00,0.053
411.00,0.052
412.00,0.052
413.00,0.052
414.00,0.052
415.00,0.051
416.00,0.051
417.00,0.051
418.00,0.051
419.00,0.051
420.00,0.051
421.00,0.050
422.00,0.050
423.00,0.050
424.00,0.050
425.00,0.050
426.00,0.049
427.00,0.049
428.00,0.049
429.00,0.049
430.00,0.049
431.00,0.049
432.00,0.048
433.00,0.048
434.00,0.048
435.00,0.048
436.00,0.048
437.00,0.048
438.00,0.048
439.00,0.048
440.00,0.047
441.00,0.047
442.00,0.047
443.00,0.047
444.00,0.047
445.00,0.047
446.00,0.047
447.00,0.047
448.00,0.047
449.00,0.046
450.00,0.046
451.00,0.046
452.00,0.046
453.00,0.046
454.00,0.046
455.00,0.046
456.00,0.046
457.00,0.046
458.00,0.046
459.00,0.045
460.00,0.045
461.00,0.045
462.00,0.045
463.00,0.045
464.00,0.045
465.00,0.045
466.00,0.045
467.00,0.045
468.00,0.045
469.00,0.045
470.00,0.044
471.00,0.044
472.00,0.044
473.00,0.044
474.00,0.044
475.00,0.044
476.00,0.044
477.00,0.044
478.00,0.044
479.00,0.044
480.00,0.044
481.00,0.044
482.00,0.044
483.00,0.043
484.00,0.043
485.00,0.043
486.00,0.043
487.00,0.043
488.00,0.043
489.00,0.043
490.00,0.043
491.00,0.043
492.00,0.043
493.00,0.043
494.00,0.043
495.00,0.043
496.00,0.042
497.00,0.042
498.00,0.042
499.00,0.042
500.00,0.042
501.00,0.042
502.00,0.042
503.00,0.042
504.00,0.042
505.00,0.042
506.00,0.042
507.00,0.042
508.00,0.042
509.00,0.042
510.00,0.042
511.00,0.042
512.00,0.042
513.00,0.042
514.00,0.041
515.00,0.041
516.00,0.041
517.00,0.041
518.00,0.041
519.00,0.041
520.00,0.041
521.00,0.041
522.00,0.041
523.00,0.041
524.00,0.041
525.00,0.041
526.00,0.041
527.00,0.041
528.00,0.041
529.00,0.041
530.00,0.041
531.00,0.041
532.00,0.041
533.00,0.040
534.00,0.040
535.00,0.040
536.00,0.041
537.00,0.040
538.00,0.040
539.00,0.040
540.00,0.040
541.00,0.040
542.00,0.040
543.00,0.040
544.00,0.040
545.00,0.040
546.00,0.040
547.00,0.040
548.00,0.040
549.00,0.040
550.00,0.040
551.00,0.040
552.00,0.040
553.00,0.040
554.00,0.040
555.00,0.040
556.00,0.040
557.00,0.039
558.00,0.039
559.00,0.040
560.00,0.040
561.00,0.039
562.00,0.039
563.00,0.039
564.00,0.039
565.00,0.039
566.00,0.039
567.00,0.039
568.00,0.039
569.00,0.039
570.00,0.039
571.00,0.039
572.00,0.039
573.00,0.039
574.00,0.039
575.00,0.039
576.00,0.039
577.00,0.039
578.00,0.039
579.00,0.039
580.00,0.039
581.00,0.039
582.00,0.039
583.00,0.039
584.00,0.039
585.00,0.039
586.00,0.039
587.00,0.039
588.00,0.039
589.00,0.039
590.00,0.039
591.00,0.039
592.00,0.039
593.00,0.039
594.00,0.039
595.00,0.039
596.00,0.039
597.00,0.039
598.00,0.039
599.00,0.039
600.00,0.039
601.00,0.039
602.00,0.039
603.00,0.039
604.00,0.039
605.00,0.039
606.00,0.039
607.00,0.039
608.00,0.039
609.00,0.039
610.00,0.039
611.00,0.039
612.00,0.039
613.00,0.039
614.00,0.039
615.00,0.039
616.00,0.039
617.00,0.039
618.00,0.039
619.00,0.039
620.00,0.039
621.00,0.039
622.00,0.039
623.00,0.039
624.00,0.039
625.00,0.039
626.00,0.039
627.00,0.039
628.00,0.039
629.00,0.039
630.00,0.038
631.00,0.038
632.00,0.038
633.00,0.038
634.00,0.038
635.00,0.038
636.00,0.038
637.00,0.038
638.00,0.038
639.00,0.038
640.00,0.038
641.00,0.038
642.00,0.038
643.00,0.038
644.00,0.038
645.00,0.038
646.00,0.038
647.00,0.038
648.00,0.038
649.00,0.038
650.00,0.038
651.00,0.038
652.00,0.038
653.00,0.038
654.00,0.038
655.00,0.038
656.00,0.038
657.00,0.038
658.00,0.038
659.00,0.038
660.00,0.038
661.00,0.038
662.00,0.038
663.00,0.038
664.00,0.038
665.00,0.038
666.00,0.038
667.00,0.038
668.00,0.038
669.00,0.038
670.00,0.038
671.00,0.038
672.00,0.038
673.00,0.038
674.00,0.038
675.00,0.038
676.00,0.038
677.00,0.038
678.00,0.038
679.00,0.038
680.00,0.038
681.00,0.038
682.00,0.038
683.00,0.038
684.00,0.038
685.00,0.038
686.00,0.038
687.00,0.038
688.00,0.038
689.00,0.038
690.00,0.038
691.00,0.038
692.00,0.038
693.00,0.038
694.00,0.038
695.00,0.038
696.00,0.039
697.00,0.039
698.00,0.039
699.00,0.039
700.00,0.039
701.00,0.039
702.00,0.039
703.00,0.039
704.00,0.039
705.00,0.039
706.00,0.039
707.00,0.039
708.00,0.039
709.00,0.039
710.00,0.039
711.00,0.039
712.00,0.040
713.00,0.040
714.00,0.040
715.00,0.040
716.00,0.040
717.00,0.040
718.00,0.041
719.00,0.041
720.00,0.041
721.00,0.041
722.00,0.041
723.00,0.042
724.00,0.042
725.00,0.042
726.00,0.042
727.00,0.043
728.00,0.043
729.00,0.044
730.00,0.044
731.00,0.045
732.00,0.045
733.00,0.046
734.00,0.046
735.00,0.046
736.00,0.047
737.00,0.047
738.00,0.047
739.00,0.047
740.00,0.047
741.00,0.047
742.00,0.047
743.00,0.047
744.00,0.047
745.00,0.047
746.00,0.047
747.00,0.047
748.00,0.047
749.00,0.047
750.00,0.047
751.00,0.047
752.00,0.047
753.00,0.047
754.00,0.047
755.00,0.047
756.00,0.047
757.00,0.047
758.00,0.047
759.00,0.047
760.00,0.048
761.00,0.047
762.00,0.047
763.00,0.047
764.00,0.047
765.00,0.047
766.00,0.047
767.00,0.047
768.00,0.047
769.00,0.047
770.00,0.047
771.00,0.047
772.00,0.047
773.00,0.047
774.00,0.047
775.00,0.047
776.00,0.047
777.00,0.046
778.00,0.046
779.00,0.046
780.00,0.046
781.00,0.046
782.00,0.046
783.00,0.046
784.00,0.046
785.00,0.046
786.00,0.046
787.00,0.046
788.00,0.045
789.00,0.045
790.00,0.045
791.00,0.045
792.00,0.045
793.00,0.045
794.00,0.045
795.00,0.045
796.00,0.045
797.00,0.045
798.00,0.044
799.00,0.044
800.00,0.044
801.00,0.044
802.00,0.044
803.00,0.044
804.00,0.044
805.00,0.044
806.00,0.044
807.00,0.044
808.00,0.044
809.00,0.044
810.00,0.044
811.00,0.044
812.00,0.044
813.00,0.044
814.00,0.044
815.00,0.044
816.00,0.044
817.00,0.044
818.00,0.044
819.00,0.044
820.00,0.045
821.00,0.045
822.00,0.045
823.00,0.045
824.00,0.046
825.00,0.046
826.00,0.046
827.00,0.047
828.00,0.047
829.00,0.048
830.00,0.048
831.00,0.049
832.00,0.049
833.00,0.050
834.00,0.050
835.00,0.050
836.00,0.051
837.00,0.051
838.00,0.051
839.00,0.051
840.00,0.051
841.00,0.051
842.00,0.052
843.00,0.052
844.00,0.052
845.00,0.052
846.00,0.052
847.00,0.052
848.00,0.052
849.00,0.052
850.00,0.053
851.00,0.053
852.00,0.053
853.00,0.053
854.00,0.053
855.00,0.053
856.00,0.053
857.00,0.054
858.00,0.054
859.00,0.054
860.00,0.054
861.00,0.054
862.00,0.054
863.00,0.054
864.00,0.054
865.00,0.054
866.00,0.055
867.00,0.055
868.00,0.055
869.00,0.055
870.00,0.055
871.00,0.055
872.00,0.055
873.00,0.056
874.00,0.056
875.00,0.056
876.00,0.056
877.00,0.056
878.00,0.057
879.00,0.057
880.00,0.057
881.00,0.057
882.00,0.058
883.00,0.058
884.00,0.058
885.00,0.059
886.00,0.059
887.00,0.059
888.00,0.059
889.00,0.059
890.00,0.060
891.00,0.060
892.00,0.060
893.00,0.060
894.00,0.061
895.00,0.061
896.00,0.061
897.00,0.061
898.00,0.062
899.00,0.062
900.00,0.062
