"CastorWeeheavySpeyside_100x - RawData"
"Wavelength nm.","Abs."
190.00,2.727
191.00,2.838
192.00,2.957
193.00,3.130
194.00,3.071
195.00,3.111
196.00,3.262
197.00,3.215
198.00,3.506
199.00,3.446
200.00,3.467
201.00,3.385
202.00,3.378
203.00,3.370
204.00,3.515
205.00,3.484
206.00,3.616
207.00,3.453
208.00,3.434
209.00,3.515
210.00,3.549
211.00,3.555
212.00,3.577
213.00,3.491
214.00,3.400
215.00,3.320
216.00,3.216
217.00,3.135
218.00,3.044
219.00,2.910
220.00,2.799
221.00,2.700
222.00,2.563
223.00,2.452
224.00,2.355
225.00,2.244
226.00,2.131
227.00,2.023
228.00,1.918
229.00,1.820
230.00,1.727
231.00,1.644
232.00,1.569
233.00,1.502
234.00,1.441
235.00,1.389
236.00,1.345
237.00,1.306
238.00,1.274
239.00,1.247
240.00,1.225
241.00,1.208
242.00,1.196
243.00,1.187
244.00,1.181
245.00,1.177
246.00,1.174
247.00,1.172
248.00,1.172
249.00,1.172
250.00,1.173
251.00,1.175
252.00,1.178
253.00,1.179
254.00,1.181
255.00,1.183
256.00,1.184
257.00,1.185
258.00,1.185
259.00,1.185
260.00,1.186
261.00,1.186
262.00,1.187
263.00,1.187
264.00,1.186
265.00,1.184
266.00,1.182
267.00,1.178
268.00,1.173
269.00,1.167
270.00,1.160
271.00,1.151
272.00,1.141
273.00,1.129
274.00,1.117
275.00,1.103
276.00,1.088
277.00,1.072
278.00,1.055
279.00,1.036
280.00,1.018
281.00,1.000
282.00,0.981
283.00,0.961
284.00,0.941
285.00,0.920
286.00,0.901
287.00,0.882
288.00,0.862
289.00,0.843
290.00,0.822
291.00,0.802
292.00,0.783
293.00,0.766
294.00,0.752
295.00,0.737
296.00,0.724
297.00,0.712
298.00,0.700
299.00,0.688
300.00,0.677
301.00,0.667
302.00,0.657
303.00,0.647
304.00,0.637
305.00,0.628
306.00,0.618
307.00,0.609
308.00,0.600
309.00,0.591
310.00,0.583
311.00,0.575
312.00,0.566
313.00,0.559
314.00,0.551
315.00,0.543
316.00,0.536
317.00,0.529
318.00,0.521
319.00,0.514
320.00,0.507
321.00,0.499
322.00,0.490
323.00,0.483
324.00,0.476
325.00,0.467
326.00,0.459
327.00,0.452
328.00,0.443
329.00,0.435
330.00,0.426
331.00,0.418
332.00,0.410
333.00,0.402
334.00,0.394
335.00,0.386
336.00,0.380
337.00,0.371
338.00,0.363
339.00,0.356
340.00,0.348
341.00,0.340
342.00,0.332
343.00,0.325
344.00,0.318
345.00,0.311
346.00,0.304
347.00,0.298
348.00,0.292
349.00,0.285
350.00,0.279
351.00,0.273
352.00,0.267
353.00,0.262
354.00,0.256
355.00,0.251
356.00,0.246
357.00,0.241
358.00,0.236
359.00,0.231
360.00,0.226
361.00,0.222
362.00,0.217
363.00,0.214
364.00,0.210
365.00,0.206
366.00,0.203
367.00,0.199
368.00,0.196
369.00,0.193
370.00,0.189
371.00,0.186
372.00,0.183
373.00,0.180
374.00,0.177
375.00,0.175
376.00,0.172
377.00,0.169
378.00,0.167
379.00,0.164
380.00,0.162
381.00,0.159
382.00,0.157
383.00,0.155
384.00,0.153
385.00,0.151
386.00,0.149
387.00,0.147
388.00,0.145
389.00,0.144
390.00,0.142
391.00,0.140
392.00,0.138
393.00,0.137
394.00,0.135
395.00,0.134
396.00,0.132
397.00,0.131
398.00,0.129
399.00,0.128
400.00,0.127
401.00,0.126
402.00,0.124
403.00,0.123
404.00,0.122
405.00,0.121
406.00,0.120
407.00,0.118
408.00,0.117
409.00,0.116
410.00,0.115
411.00,0.114
412.00,0.113
413.00,0.112
414.00,0.111
415.00,0.110
416.00,0.109
417.00,0.109
418.00,0.108
419.00,0.107
420.00,0.106
421.00,0.105
422.00,0.105
423.00,0.104
424.00,0.103
425.00,0.102
426.00,0.101
427.00,0.100
428.00,0.100
429.00,0.099
430.00,0.098
431.00,0.098
432.00,0.097
433.00,0.096
434.00,0.095
435.00,0.095
436.00,0.094
437.00,0.093
438.00,0.093
439.00,0.092
440.00,0.092
441.00,0.091
442.00,0.090
443.00,0.090
444.00,0.089
445.00,0.089
446.00,0.088
447.00,0.087
448.00,0.087
449.00,0.087
450.00,0.086
451.00,0.085
452.00,0.085
453.00,0.084
454.00,0.084
455.00,0.083
456.00,0.083
457.00,0.082
458.00,0.082
459.00,0.081
460.00,0.081
461.00,0.081
462.00,0.080
463.00,0.079
464.00,0.079
465.00,0.079
466.00,0.078
467.00,0.078
468.00,0.077
469.00,0.077
470.00,0.076
471.00,0.076
472.00,0.076
473.00,0.075
474.00,0.075
475.00,0.074
476.00,0.074
477.00,0.074
478.00,0.073
479.00,0.073
480.00,0.072
481.00,0.072
482.00,0.072
483.00,0.071
484.00,0.071
485.00,0.070
486.00,0.070
487.00,0.070
488.00,0.069
489.00,0.069
490.00,0.068
491.00,0.068
492.00,0.068
493.00,0.067
494.00,0.067
495.00,0.067
496.00,0.066
497.00,0.066
498.00,0.066
499.00,0.066
500.00,0.065
501.00,0.065
502.00,0.065
503.00,0.064
504.00,0.064
505.00,0.064
506.00,0.064
507.00,0.063
508.00,0.063
509.00,0.063
510.00,0.062
511.00,0.062
512.00,0.062
513.00,0.062
514.00,0.061
515.00,0.061
516.00,0.061
517.00,0.061
518.00,0.060
519.00,0.060
520.00,0.060
521.00,0.060
522.00,0.059
523.00,0.059
524.00,0.059
525.00,0.059
526.00,0.059
527.00,0.058
528.00,0.058
529.00,0.058
530.00,0.058
531.00,0.057
532.00,0.057
533.00,0.057
534.00,0.057
535.00,0.057
536.00,0.057
537.00,0.056
538.00,0.056
539.00,0.056
540.00,0.055
541.00,0.055
542.00,0.055
543.00,0.055
544.00,0.055
545.00,0.055
546.00,0.054
547.00,0.054
548.00,0.054
549.00,0.054
550.00,0.054
551.00,0.054
552.00,0.053
553.00,0.053
554.00,0.053
555.00,0.053
556.00,0.053
557.00,0.053
558.00,0.052
559.00,0.052
560.00,0.052
561.00,0.052
562.00,0.052
563.00,0.052
564.00,0.052
565.00,0.052
566.00,0.051
567.00,0.051
568.00,0.051
569.00,0.051
570.00,0.051
571.00,0.051
572.00,0.051
573.00,0.050
574.00,0.050
575.00,0.050
576.00,0.050
577.00,0.050
578.00,0.050
579.00,0.050
580.00,0.050
581.00,0.050
582.00,0.050
583.00,0.049
584.00,0.049
585.00,0.049
586.00,0.049
587.00,0.049
588.00,0.049
589.00,0.049
590.00,0.049
591.00,0.049
592.00,0.049
593.00,0.049
594.00,0.049
595.00,0.049
596.00,0.049
597.00,0.048
598.00,0.048
599.00,0.048
600.00,0.048
601.00,0.048
602.00,0.048
603.00,0.048
604.00,0.048
605.00,0.048
606.00,0.048
607.00,0.048
608.00,0.048
609.00,0.048
610.00,0.048
611.00,0.048
612.00,0.048
613.00,0.047
614.00,0.047
615.00,0.047
616.00,0.047
617.00,0.047
618.00,0.047
619.00,0.047
620.00,0.047
621.00,0.047
622.00,0.047
623.00,0.047
624.00,0.047
625.00,0.047
626.00,0.046
627.00,0.046
628.00,0.046
629.00,0.046
630.00,0.046
631.00,0.046
632.00,0.046
633.00,0.046
634.00,0.046
635.00,0.046
636.00,0.046
637.00,0.046
638.00,0.046
639.00,0.046
640.00,0.045
641.00,0.045
642.00,0.045
643.00,0.045
644.00,0.045
645.00,0.045
646.00,0.045
647.00,0.045
648.00,0.045
649.00,0.045
650.00,0.045
651.00,0.045
652.00,0.045
653.00,0.045
654.00,0.045
655.00,0.045
656.00,0.045
657.00,0.045
658.00,0.045
659.00,0.045
660.00,0.045
661.00,0.045
662.00,0.045
663.00,0.045
664.00,0.045
665.00,0.045
666.00,0.045
667.00,0.045
668.00,0.044
669.00,0.044
670.00,0.044
671.00,0.044
672.00,0.044
673.00,0.044
674.00,0.044
675.00,0.044
676.00,0.044
677.00,0.044
678.00,0.044
679.00,0.044
680.00,0.044
681.00,0.044
682.00,0.044
683.00,0.044
684.00,0.044
685.00,0.044
686.00,0.044
687.00,0.044
688.00,0.044
689.00,0.044
690.00,0.044
691.00,0.044
692.00,0.044
693.00,0.044
694.00,0.044
695.00,0.044
696.00,0.044
697.00,0.044
698.00,0.044
699.00,0.044
700.00,0.044
701.00,0.044
702.00,0.044
703.00,0.044
704.00,0.044
705.00,0.044
706.00,0.044
707.00,0.044
708.00,0.044
709.00,0.045
710.00,0.045
711.00,0.045
712.00,0.045
713.00,0.045
714.00,0.045
715.00,0.045
716.00,0.045
717.00,0.045
718.00,0.046
719.00,0.046
720.00,0.046
721.00,0.046
722.00,0.046
723.00,0.047
724.00,0.047
725.00,0.047
726.00,0.047
727.00,0.048
728.00,0.048
729.00,0.048
730.00,0.049
731.00,0.049
732.00,0.050
733.00,0.050
734.00,0.051
735.00,0.051
736.00,0.051
737.00,0.052
738.00,0.052
739.00,0.052
740.00,0.052
741.00,0.052
742.00,0.052
743.00,0.052
744.00,0.052
745.00,0.052
746.00,0.052
747.00,0.052
748.00,0.052
749.00,0.052
750.00,0.052
751.00,0.052
752.00,0.052
753.00,0.052
754.00,0.052
755.00,0.052
756.00,0.052
757.00,0.052
758.00,0.052
759.00,0.052
760.00,0.052
761.00,0.052
762.00,0.052
763.00,0.052
764.00,0.052
765.00,0.052
766.00,0.052
767.00,0.051
768.00,0.051
769.00,0.051
770.00,0.051
771.00,0.051
772.00,0.051
773.00,0.051
774.00,0.051
775.00,0.051
776.00,0.051
777.00,0.051
778.00,0.051
779.00,0.050
780.00,0.050
781.00,0.050
782.00,0.050
783.00,0.050
784.00,0.050
785.00,0.050
786.00,0.050
787.00,0.050
788.00,0.049
789.00,0.049
790.00,0.049
791.00,0.049
792.00,0.049
793.00,0.049
794.00,0.049
795.00,0.049
796.00,0.049
797.00,0.049
798.00,0.048
799.00,0.048
800.00,0.048
801.00,0.048
802.00,0.048
803.00,0.048
804.00,0.048
805.00,0.048
806.00,0.048
807.00,0.048
808.00,0.048
809.00,0.048
810.00,0.048
811.00,0.048
812.00,0.048
813.00,0.048
814.00,0.048
815.00,0.048
816.00,0.048
817.00,0.048
818.00,0.048
819.00,0.048
820.00,0.048
821.00,0.048
822.00,0.049
823.00,0.049
824.00,0.049
825.00,0.050
826.00,0.050
827.00,0.051
828.00,0.051
829.00,0.052
830.00,0.052
831.00,0.053
832.00,0.053
833.00,0.054
834.00,0.054
835.00,0.054
836.00,0.054
837.00,0.054
838.00,0.054
839.00,0.055
840.00,0.055
841.00,0.055
842.00,0.055
843.00,0.055
844.00,0.055
845.00,0.055
846.00,0.055
847.00,0.056
848.00,0.056
849.00,0.056
850.00,0.056
851.00,0.056
852.00,0.056
853.00,0.056
854.00,0.056
855.00,0.056
856.00,0.056
857.00,0.056
858.00,0.057
859.00,0.057
860.00,0.057
861.00,0.057
862.00,0.057
863.00,0.057
864.00,0.057
865.00,0.057
866.00,0.058
867.00,0.058
868.00,0.058
869.00,0.058
870.00,0.058
871.00,0.058
872.00,0.058
873.00,0.058
874.00,0.059
875.00,0.059
876.00,0.059
877.00,0.059
878.00,0.059
879.00,0.060
880.00,0.060
881.00,0.060
882.00,0.060
883.00,0.061
884.00,0.061
885.00,0.061
886.00,0.061
887.00,0.062
888.00,0.062
889.00,0.062
890.00,0.062
891.00,0.062
892.00,0.063
893.00,0.063
894.00,0.063
895.00,0.063
896.00,0.063
897.00,0.064
898.00,0.064
899.00,0.064
900.00,0.064
