"ChalesHenriPAA50x - RawData"
"Wavelength nm.","Abs."
190.00,3.051
191.00,3.171
192.00,3.139
193.00,3.326
194.00,3.283
195.00,3.442
196.00,3.568
197.00,3.498
198.00,3.635
199.00,3.479
200.00,3.638
201.00,3.572
202.00,3.569
203.00,3.671
204.00,3.729
205.00,3.525
206.00,3.550
207.00,3.473
208.00,3.437
209.00,3.405
210.00,3.260
211.00,3.167
212.00,3.055
213.00,2.940
214.00,2.834
215.00,2.707
216.00,2.597
217.00,2.496
218.00,2.377
219.00,2.261
220.00,2.156
221.00,2.061
222.00,1.966
223.00,1.872
224.00,1.781
225.00,1.694
226.00,1.606
227.00,1.516
228.00,1.429
229.00,1.347
230.00,1.269
231.00,1.199
232.00,1.136
233.00,1.081
234.00,1.034
235.00,0.994
236.00,0.960
237.00,0.932
238.00,0.909
239.00,0.891
240.00,0.878
241.00,0.867
242.00,0.861
243.00,0.857
244.00,0.855
245.00,0.855
246.00,0.857
247.00,0.859
248.00,0.863
249.00,0.867
250.00,0.872
251.00,0.877
252.00,0.882
253.00,0.888
254.00,0.893
255.00,0.899
256.00,0.904
257.00,0.908
258.00,0.910
259.00,0.912
260.00,0.913
261.00,0.914
262.00,0.915
263.00,0.916
264.00,0.917
265.00,0.917
266.00,0.916
267.00,0.914
268.00,0.911
269.00,0.907
270.00,0.902
271.00,0.896
272.00,0.889
273.00,0.881
274.00,0.872
275.00,0.861
276.00,0.850
277.00,0.837
278.00,0.823
279.00,0.808
280.00,0.793
281.00,0.776
282.00,0.759
283.00,0.741
284.00,0.721
285.00,0.701
286.00,0.682
287.00,0.664
288.00,0.645
289.00,0.625
290.00,0.604
291.00,0.584
292.00,0.566
293.00,0.549
294.00,0.535
295.00,0.523
296.00,0.512
297.00,0.502
298.00,0.492
299.00,0.483
300.00,0.475
301.00,0.467
302.00,0.460
303.00,0.453
304.00,0.446
305.00,0.440
306.00,0.434
307.00,0.427
308.00,0.421
309.00,0.416
310.00,0.410
311.00,0.404
312.00,0.399
313.00,0.394
314.00,0.389
315.00,0.384
316.00,0.378
317.00,0.373
318.00,0.368
319.00,0.363
320.00,0.358
321.00,0.352
322.00,0.347
323.00,0.341
324.00,0.335
325.00,0.330
326.00,0.324
327.00,0.318
328.00,0.312
329.00,0.306
330.00,0.301
331.00,0.294
332.00,0.289
333.00,0.283
334.00,0.277
335.00,0.271
336.00,0.266
337.00,0.261
338.00,0.255
339.00,0.249
340.00,0.244
341.00,0.237
342.00,0.232
343.00,0.227
344.00,0.222
345.00,0.217
346.00,0.212
347.00,0.208
348.00,0.203
349.00,0.198
350.00,0.194
351.00,0.190
352.00,0.185
353.00,0.181
354.00,0.177
355.00,0.173
356.00,0.170
357.00,0.166
358.00,0.163
359.00,0.159
360.00,0.156
361.00,0.153
362.00,0.150
363.00,0.147
364.00,0.144
365.00,0.141
366.00,0.139
367.00,0.136
368.00,0.134
369.00,0.131
370.00,0.129
371.00,0.127
372.00,0.125
373.00,0.123
374.00,0.121
375.00,0.119
376.00,0.117
377.00,0.115
378.00,0.113
379.00,0.111
380.00,0.109
381.00,0.107
382.00,0.106
383.00,0.104
384.00,0.103
385.00,0.101
386.00,0.100
387.00,0.098
388.00,0.097
389.00,0.096
390.00,0.095
391.00,0.093
392.00,0.092
393.00,0.091
394.00,0.090
395.00,0.089
396.00,0.088
397.00,0.087
398.00,0.086
399.00,0.085
400.00,0.084
401.00,0.083
402.00,0.082
403.00,0.082
404.00,0.081
405.00,0.080
406.00,0.079
407.00,0.079
408.00,0.078
409.00,0.077
410.00,0.076
411.00,0.076
412.00,0.075
413.00,0.075
414.00,0.074
415.00,0.074
416.00,0.073
417.00,0.072
418.00,0.072
419.00,0.071
420.00,0.071
421.00,0.070
422.00,0.070
423.00,0.069
424.00,0.069
425.00,0.068
426.00,0.068
427.00,0.068
428.00,0.067
429.00,0.067
430.00,0.066
431.00,0.066
432.00,0.065
433.00,0.065
434.00,0.064
435.00,0.064
436.00,0.064
437.00,0.063
438.00,0.063
439.00,0.063
440.00,0.062
441.00,0.062
442.00,0.062
443.00,0.061
444.00,0.061
445.00,0.061
446.00,0.060
447.00,0.060
448.00,0.060
449.00,0.059
450.00,0.059
451.00,0.059
452.00,0.059
453.00,0.058
454.00,0.058
455.00,0.058
456.00,0.058
457.00,0.057
458.00,0.057
459.00,0.057
460.00,0.057
461.00,0.056
462.00,0.056
463.00,0.056
464.00,0.056
465.00,0.055
466.00,0.055
467.00,0.055
468.00,0.055
469.00,0.054
470.00,0.054
471.00,0.054
472.00,0.054
473.00,0.053
474.00,0.053
475.00,0.053
476.00,0.053
477.00,0.053
478.00,0.052
479.00,0.052
480.00,0.052
481.00,0.052
482.00,0.052
483.00,0.051
484.00,0.051
485.00,0.051
486.00,0.051
487.00,0.051
488.00,0.050
489.00,0.050
490.00,0.050
491.00,0.050
492.00,0.050
493.00,0.049
494.00,0.049
495.00,0.049
496.00,0.049
497.00,0.049
498.00,0.049
499.00,0.048
500.00,0.048
501.00,0.048
502.00,0.048
503.00,0.048
504.00,0.048
505.00,0.047
506.00,0.047
507.00,0.047
508.00,0.047
509.00,0.047
510.00,0.047
511.00,0.047
512.00,0.047
513.00,0.046
514.00,0.046
515.00,0.046
516.00,0.046
517.00,0.046
518.00,0.046
519.00,0.046
520.00,0.046
521.00,0.045
522.00,0.045
523.00,0.045
524.00,0.045
525.00,0.045
526.00,0.045
527.00,0.045
528.00,0.045
529.00,0.044
530.00,0.044
531.00,0.044
532.00,0.044
533.00,0.044
534.00,0.044
535.00,0.044
536.00,0.044
537.00,0.044
538.00,0.043
539.00,0.043
540.00,0.043
541.00,0.043
542.00,0.043
543.00,0.043
544.00,0.043
545.00,0.043
546.00,0.043
547.00,0.043
548.00,0.043
549.00,0.043
550.00,0.042
551.00,0.042
552.00,0.042
553.00,0.042
554.00,0.042
555.00,0.042
556.00,0.042
557.00,0.042
558.00,0.042
559.00,0.042
560.00,0.042
561.00,0.042
562.00,0.042
563.00,0.042
564.00,0.041
565.00,0.041
566.00,0.041
567.00,0.041
568.00,0.041
569.00,0.041
570.00,0.041
571.00,0.041
572.00,0.041
573.00,0.041
574.00,0.041
575.00,0.041
576.00,0.041
577.00,0.041
578.00,0.041
579.00,0.041
580.00,0.040
581.00,0.040
582.00,0.040
583.00,0.040
584.00,0.040
585.00,0.040
586.00,0.040
587.00,0.040
588.00,0.040
589.00,0.040
590.00,0.040
591.00,0.040
592.00,0.040
593.00,0.040
594.00,0.040
595.00,0.040
596.00,0.040
597.00,0.040
598.00,0.040
599.00,0.040
600.00,0.040
601.00,0.040
602.00,0.040
603.00,0.040
604.00,0.040
605.00,0.040
606.00,0.040
607.00,0.040
608.00,0.040
609.00,0.040
610.00,0.040
611.00,0.040
612.00,0.040
613.00,0.040
614.00,0.040
615.00,0.040
616.00,0.040
617.00,0.040
618.00,0.040
619.00,0.040
620.00,0.039
621.00,0.039
622.00,0.039
623.00,0.039
624.00,0.039
625.00,0.039
626.00,0.039
627.00,0.039
628.00,0.039
629.00,0.039
630.00,0.039
631.00,0.039
632.00,0.039
633.00,0.039
634.00,0.039
635.00,0.039
636.00,0.039
637.00,0.039
638.00,0.039
639.00,0.039
640.00,0.039
641.00,0.039
642.00,0.039
643.00,0.039
644.00,0.039
645.00,0.039
646.00,0.039
647.00,0.039
648.00,0.039
649.00,0.039
650.00,0.039
651.00,0.039
652.00,0.039
653.00,0.039
654.00,0.039
655.00,0.039
656.00,0.039
657.00,0.039
658.00,0.039
659.00,0.039
660.00,0.039
661.00,0.039
662.00,0.039
663.00,0.039
664.00,0.039
665.00,0.039
666.00,0.039
667.00,0.038
668.00,0.038
669.00,0.038
670.00,0.038
671.00,0.038
672.00,0.038
673.00,0.038
674.00,0.038
675.00,0.038
676.00,0.038
677.00,0.038
678.00,0.038
679.00,0.038
680.00,0.038
681.00,0.038
682.00,0.038
683.00,0.038
684.00,0.038
685.00,0.038
686.00,0.038
687.00,0.038
688.00,0.038
689.00,0.038
690.00,0.038
691.00,0.038
692.00,0.038
693.00,0.038
694.00,0.038
695.00,0.038
696.00,0.038
697.00,0.038
698.00,0.038
699.00,0.039
700.00,0.039
701.00,0.039
702.00,0.039
703.00,0.039
704.00,0.039
705.00,0.039
706.00,0.039
707.00,0.039
708.00,0.039
709.00,0.039
710.00,0.039
711.00,0.039
712.00,0.040
713.00,0.040
714.00,0.040
715.00,0.040
716.00,0.040
717.00,0.040
718.00,0.040
719.00,0.041
720.00,0.041
721.00,0.041
722.00,0.041
723.00,0.041
724.00,0.042
725.00,0.042
726.00,0.042
727.00,0.043
728.00,0.043
729.00,0.043
730.00,0.044
731.00,0.044
732.00,0.045
733.00,0.045
734.00,0.046
735.00,0.046
736.00,0.046
737.00,0.047
738.00,0.047
739.00,0.047
740.00,0.047
741.00,0.047
742.00,0.047
743.00,0.047
744.00,0.047
745.00,0.047
746.00,0.047
747.00,0.047
748.00,0.047
749.00,0.047
750.00,0.047
751.00,0.047
752.00,0.047
753.00,0.047
754.00,0.047
755.00,0.047
756.00,0.047
757.00,0.047
758.00,0.047
759.00,0.047
760.00,0.047
761.00,0.047
762.00,0.047
763.00,0.047
764.00,0.047
765.00,0.047
766.00,0.047
767.00,0.047
768.00,0.047
769.00,0.047
770.00,0.047
771.00,0.047
772.00,0.047
773.00,0.046
774.00,0.046
775.00,0.046
776.00,0.046
777.00,0.046
778.00,0.046
779.00,0.046
780.00,0.046
781.00,0.046
782.00,0.046
783.00,0.046
784.00,0.046
785.00,0.045
786.00,0.045
787.00,0.045
788.00,0.045
789.00,0.045
790.00,0.045
791.00,0.045
792.00,0.045
793.00,0.045
794.00,0.045
795.00,0.044
796.00,0.044
797.00,0.044
798.00,0.044
799.00,0.044
800.00,0.044
801.00,0.044
802.00,0.044
803.00,0.044
804.00,0.044
805.00,0.044
806.00,0.044
807.00,0.044
808.00,0.044
809.00,0.044
810.00,0.044
811.00,0.044
812.00,0.044
813.00,0.044
814.00,0.044
815.00,0.044
816.00,0.044
817.00,0.044
818.00,0.044
819.00,0.044
820.00,0.044
821.00,0.044
822.00,0.045
823.00,0.045
824.00,0.045
825.00,0.045
826.00,0.046
827.00,0.046
828.00,0.047
829.00,0.047
830.00,0.048
831.00,0.049
832.00,0.049
833.00,0.049
834.00,0.050
835.00,0.050
836.00,0.050
837.00,0.050
838.00,0.051
839.00,0.051
840.00,0.051
841.00,0.051
842.00,0.051
843.00,0.051
844.00,0.051
845.00,0.052
846.00,0.052
847.00,0.052
848.00,0.052
849.00,0.052
850.00,0.052
851.00,0.052
852.00,0.052
853.00,0.053
854.00,0.053
855.00,0.053
856.00,0.053
857.00,0.053
858.00,0.053
859.00,0.053
860.00,0.053
861.00,0.053
862.00,0.053
863.00,0.054
864.00,0.054
865.00,0.054
866.00,0.054
867.00,0.054
868.00,0.054
869.00,0.055
870.00,0.055
871.00,0.055
872.00,0.055
873.00,0.055
874.00,0.055
875.00,0.056
876.00,0.056
877.00,0.056
878.00,0.056
879.00,0.056
880.00,0.057
881.00,0.057
882.00,0.057
883.00,0.057
884.00,0.058
885.00,0.058
886.00,0.058
887.00,0.058
888.00,0.059
889.00,0.059
890.00,0.059
891.00,0.059
892.00,0.060
893.00,0.060
894.00,0.060
895.00,0.060
896.00,0.060
897.00,0.061
898.00,0.061
899.00,0.061
900.00,0.061
