"CharlesHenriBlanche_50x - RawData"
"Wavelength nm.","Abs."
190.00,2.970
191.00,2.924
192.00,2.894
193.00,3.080
194.00,3.143
195.00,3.208
196.00,3.230
197.00,3.245
198.00,3.398
199.00,3.169
200.00,3.241
201.00,3.248
202.00,3.208
203.00,3.240
204.00,3.153
205.00,3.066
206.00,2.943
207.00,2.794
208.00,2.707
209.00,2.595
210.00,2.475
211.00,2.374
212.00,2.278
213.00,2.179
214.00,2.078
215.00,1.987
216.00,1.897
217.00,1.814
218.00,1.728
219.00,1.643
220.00,1.564
221.00,1.490
222.00,1.420
223.00,1.349
224.00,1.281
225.00,1.215
226.00,1.149
227.00,1.081
228.00,1.014
229.00,0.952
230.00,0.895
231.00,0.843
232.00,0.798
233.00,0.758
234.00,0.724
235.00,0.695
236.00,0.670
237.00,0.649
238.00,0.633
239.00,0.620
240.00,0.610
241.00,0.602
242.00,0.598
243.00,0.595
244.00,0.594
245.00,0.594
246.00,0.595
247.00,0.597
248.00,0.600
249.00,0.603
250.00,0.606
251.00,0.610
252.00,0.614
253.00,0.618
254.00,0.621
255.00,0.625
256.00,0.627
257.00,0.630
258.00,0.631
259.00,0.631
260.00,0.631
261.00,0.631
262.00,0.630
263.00,0.630
264.00,0.629
265.00,0.628
266.00,0.627
267.00,0.624
268.00,0.621
269.00,0.616
270.00,0.611
271.00,0.605
272.00,0.598
273.00,0.591
274.00,0.582
275.00,0.574
276.00,0.565
277.00,0.555
278.00,0.545
279.00,0.534
280.00,0.522
281.00,0.510
282.00,0.498
283.00,0.485
284.00,0.472
285.00,0.457
286.00,0.444
287.00,0.430
288.00,0.416
289.00,0.402
290.00,0.387
291.00,0.372
292.00,0.357
293.00,0.345
294.00,0.334
295.00,0.324
296.00,0.315
297.00,0.307
298.00,0.299
299.00,0.292
300.00,0.286
301.00,0.280
302.00,0.275
303.00,0.271
304.00,0.266
305.00,0.263
306.00,0.259
307.00,0.256
308.00,0.253
309.00,0.251
310.00,0.248
311.00,0.246
312.00,0.244
313.00,0.243
314.00,0.241
315.00,0.239
316.00,0.237
317.00,0.235
318.00,0.234
319.00,0.232
320.00,0.230
321.00,0.228
322.00,0.226
323.00,0.225
324.00,0.222
325.00,0.220
326.00,0.217
327.00,0.215
328.00,0.212
329.00,0.210
330.00,0.207
331.00,0.204
332.00,0.201
333.00,0.198
334.00,0.195
335.00,0.192
336.00,0.189
337.00,0.186
338.00,0.182
339.00,0.179
340.00,0.176
341.00,0.172
342.00,0.169
343.00,0.165
344.00,0.162
345.00,0.159
346.00,0.156
347.00,0.153
348.00,0.150
349.00,0.147
350.00,0.143
351.00,0.140
352.00,0.138
353.00,0.135
354.00,0.132
355.00,0.129
356.00,0.127
357.00,0.124
358.00,0.121
359.00,0.119
360.00,0.117
361.00,0.115
362.00,0.112
363.00,0.110
364.00,0.108
365.00,0.107
366.00,0.105
367.00,0.103
368.00,0.101
369.00,0.099
370.00,0.098
371.00,0.096
372.00,0.095
373.00,0.093
374.00,0.092
375.00,0.090
376.00,0.089
377.00,0.088
378.00,0.087
379.00,0.085
380.00,0.084
381.00,0.083
382.00,0.082
383.00,0.081
384.00,0.080
385.00,0.079
386.00,0.078
387.00,0.078
388.00,0.077
389.00,0.076
390.00,0.075
391.00,0.074
392.00,0.074
393.00,0.073
394.00,0.072
395.00,0.072
396.00,0.071
397.00,0.071
398.00,0.070
399.00,0.070
400.00,0.069
401.00,0.069
402.00,0.068
403.00,0.068
404.00,0.068
405.00,0.067
406.00,0.067
407.00,0.066
408.00,0.066
409.00,0.066
410.00,0.065
411.00,0.065
412.00,0.065
413.00,0.064
414.00,0.064
415.00,0.064
416.00,0.063
417.00,0.063
418.00,0.063
419.00,0.063
420.00,0.062
421.00,0.062
422.00,0.062
423.00,0.062
424.00,0.062
425.00,0.061
426.00,0.061
427.00,0.061
428.00,0.061
429.00,0.060
430.00,0.060
431.00,0.060
432.00,0.060
433.00,0.060
434.00,0.059
435.00,0.059
436.00,0.059
437.00,0.059
438.00,0.059
439.00,0.058
440.00,0.058
441.00,0.058
442.00,0.058
443.00,0.058
444.00,0.058
445.00,0.058
446.00,0.057
447.00,0.057
448.00,0.057
449.00,0.057
450.00,0.057
451.00,0.056
452.00,0.056
453.00,0.056
454.00,0.056
455.00,0.056
456.00,0.056
457.00,0.056
458.00,0.056
459.00,0.055
460.00,0.055
461.00,0.055
462.00,0.055
463.00,0.055
464.00,0.055
465.00,0.055
466.00,0.055
467.00,0.055
468.00,0.054
469.00,0.054
470.00,0.054
471.00,0.054
472.00,0.054
473.00,0.054
474.00,0.054
475.00,0.054
476.00,0.054
477.00,0.053
478.00,0.053
479.00,0.053
480.00,0.053
481.00,0.053
482.00,0.053
483.00,0.053
484.00,0.053
485.00,0.053
486.00,0.052
487.00,0.052
488.00,0.052
489.00,0.052
490.00,0.052
491.00,0.052
492.00,0.052
493.00,0.052
494.00,0.052
495.00,0.052
496.00,0.052
497.00,0.052
498.00,0.051
499.00,0.051
500.00,0.051
501.00,0.051
502.00,0.051
503.00,0.051
504.00,0.051
505.00,0.051
506.00,0.051
507.00,0.051
508.00,0.051
509.00,0.051
510.00,0.050
511.00,0.050
512.00,0.050
513.00,0.050
514.00,0.050
515.00,0.050
516.00,0.050
517.00,0.050
518.00,0.050
519.00,0.050
520.00,0.050
521.00,0.050
522.00,0.050
523.00,0.049
524.00,0.049
525.00,0.049
526.00,0.049
527.00,0.049
528.00,0.049
529.00,0.049
530.00,0.049
531.00,0.049
532.00,0.049
533.00,0.049
534.00,0.049
535.00,0.049
536.00,0.049
537.00,0.049
538.00,0.048
539.00,0.048
540.00,0.048
541.00,0.048
542.00,0.048
543.00,0.048
544.00,0.048
545.00,0.048
546.00,0.048
547.00,0.048
548.00,0.048
549.00,0.048
550.00,0.048
551.00,0.048
552.00,0.048
553.00,0.048
554.00,0.048
555.00,0.047
556.00,0.047
557.00,0.047
558.00,0.047
559.00,0.047
560.00,0.047
561.00,0.047
562.00,0.047
563.00,0.047
564.00,0.047
565.00,0.047
566.00,0.047
567.00,0.047
568.00,0.047
569.00,0.047
570.00,0.047
571.00,0.047
572.00,0.047
573.00,0.047
574.00,0.047
575.00,0.047
576.00,0.047
577.00,0.047
578.00,0.046
579.00,0.046
580.00,0.046
581.00,0.046
582.00,0.046
583.00,0.046
584.00,0.046
585.00,0.046
586.00,0.046
587.00,0.046
588.00,0.046
589.00,0.046
590.00,0.046
591.00,0.046
592.00,0.046
593.00,0.046
594.00,0.046
595.00,0.046
596.00,0.046
597.00,0.046
598.00,0.046
599.00,0.046
600.00,0.046
601.00,0.046
602.00,0.046
603.00,0.046
604.00,0.046
605.00,0.046
606.00,0.046
607.00,0.046
608.00,0.046
609.00,0.046
610.00,0.046
611.00,0.046
612.00,0.046
613.00,0.046
614.00,0.046
615.00,0.046
616.00,0.046
617.00,0.046
618.00,0.046
619.00,0.046
620.00,0.046
621.00,0.045
622.00,0.045
623.00,0.045
624.00,0.045
625.00,0.045
626.00,0.045
627.00,0.045
628.00,0.045
629.00,0.045
630.00,0.045
631.00,0.045
632.00,0.045
633.00,0.045
634.00,0.045
635.00,0.045
636.00,0.045
637.00,0.045
638.00,0.045
639.00,0.045
640.00,0.045
641.00,0.045
642.00,0.045
643.00,0.045
644.00,0.045
645.00,0.045
646.00,0.045
647.00,0.045
648.00,0.045
649.00,0.045
650.00,0.045
651.00,0.045
652.00,0.044
653.00,0.044
654.00,0.045
655.00,0.045
656.00,0.045
657.00,0.045
658.00,0.044
659.00,0.044
660.00,0.044
661.00,0.044
662.00,0.044
663.00,0.044
664.00,0.044
665.00,0.044
666.00,0.044
667.00,0.044
668.00,0.044
669.00,0.044
670.00,0.044
671.00,0.044
672.00,0.044
673.00,0.044
674.00,0.044
675.00,0.044
676.00,0.044
677.00,0.044
678.00,0.044
679.00,0.044
680.00,0.044
681.00,0.044
682.00,0.044
683.00,0.044
684.00,0.044
685.00,0.044
686.00,0.044
687.00,0.044
688.00,0.044
689.00,0.044
690.00,0.044
691.00,0.044
692.00,0.044
693.00,0.044
694.00,0.044
695.00,0.044
696.00,0.044
697.00,0.044
698.00,0.044
699.00,0.044
700.00,0.044
701.00,0.044
702.00,0.044
703.00,0.044
704.00,0.044
705.00,0.044
706.00,0.044
707.00,0.044
708.00,0.044
709.00,0.044
710.00,0.044
711.00,0.045
712.00,0.045
713.00,0.045
714.00,0.045
715.00,0.045
716.00,0.045
717.00,0.045
718.00,0.046
719.00,0.046
720.00,0.046
721.00,0.046
722.00,0.047
723.00,0.047
724.00,0.047
725.00,0.047
726.00,0.047
727.00,0.048
728.00,0.048
729.00,0.049
730.00,0.049
731.00,0.050
732.00,0.050
733.00,0.050
734.00,0.051
735.00,0.051
736.00,0.051
737.00,0.052
738.00,0.052
739.00,0.052
740.00,0.052
741.00,0.052
742.00,0.052
743.00,0.052
744.00,0.052
745.00,0.052
746.00,0.052
747.00,0.052
748.00,0.052
749.00,0.052
750.00,0.052
751.00,0.052
752.00,0.052
753.00,0.052
754.00,0.052
755.00,0.052
756.00,0.052
757.00,0.052
758.00,0.052
759.00,0.052
760.00,0.053
761.00,0.052
762.00,0.052
763.00,0.052
764.00,0.052
765.00,0.052
766.00,0.052
767.00,0.052
768.00,0.052
769.00,0.052
770.00,0.052
771.00,0.052
772.00,0.052
773.00,0.052
774.00,0.051
775.00,0.051
776.00,0.051
777.00,0.051
778.00,0.051
779.00,0.051
780.00,0.051
781.00,0.051
782.00,0.051
783.00,0.051
784.00,0.051
785.00,0.050
786.00,0.050
787.00,0.050
788.00,0.050
789.00,0.050
790.00,0.050
791.00,0.050
792.00,0.050
793.00,0.050
794.00,0.049
795.00,0.049
796.00,0.049
797.00,0.049
798.00,0.049
799.00,0.049
800.00,0.049
801.00,0.049
802.00,0.049
803.00,0.049
804.00,0.049
805.00,0.049
806.00,0.048
807.00,0.048
808.00,0.048
809.00,0.048
810.00,0.048
811.00,0.048
812.00,0.048
813.00,0.048
814.00,0.049
815.00,0.049
816.00,0.049
817.00,0.049
818.00,0.049
819.00,0.049
820.00,0.049
821.00,0.049
822.00,0.049
823.00,0.050
824.00,0.050
825.00,0.050
826.00,0.051
827.00,0.051
828.00,0.052
829.00,0.052
830.00,0.053
831.00,0.053
832.00,0.054
833.00,0.054
834.00,0.054
835.00,0.055
836.00,0.055
837.00,0.055
838.00,0.055
839.00,0.055
840.00,0.056
841.00,0.056
842.00,0.056
843.00,0.056
844.00,0.056
845.00,0.056
846.00,0.056
847.00,0.056
848.00,0.057
849.00,0.057
850.00,0.057
851.00,0.057
852.00,0.057
853.00,0.057
854.00,0.057
855.00,0.057
856.00,0.057
857.00,0.058
858.00,0.058
859.00,0.058
860.00,0.058
861.00,0.058
862.00,0.058
863.00,0.058
864.00,0.058
865.00,0.059
866.00,0.059
867.00,0.059
868.00,0.059
869.00,0.059
870.00,0.059
871.00,0.059
872.00,0.060
873.00,0.060
874.00,0.060
875.00,0.060
876.00,0.060
877.00,0.061
878.00,0.061
879.00,0.061
880.00,0.061
881.00,0.062
882.00,0.062
883.00,0.062
884.00,0.062
885.00,0.063
886.00,0.063
887.00,0.063
888.00,0.063
889.00,0.063
890.00,0.064
891.00,0.064
892.00,0.064
893.00,0.064
894.00,0.064
895.00,0.065
896.00,0.065
897.00,0.065
898.00,0.065
899.00,0.066
900.00,0.066
