"CharlesbourgBrumaire_50x - RawData"
"Wavelength nm.","Abs."
190.00,3.014
191.00,3.103
192.00,3.098
193.00,3.316
194.00,3.385
195.00,3.511
196.00,3.433
197.00,3.479
198.00,3.359
199.00,3.377
200.00,3.569
201.00,3.439
202.00,3.492
203.00,3.570
204.00,3.531
205.00,3.421
206.00,3.452
207.00,3.461
208.00,3.402
209.00,3.228
210.00,3.083
211.00,2.960
212.00,2.844
213.00,2.730
214.00,2.625
215.00,2.504
216.00,2.394
217.00,2.277
218.00,2.171
219.00,2.064
220.00,1.964
221.00,1.865
222.00,1.772
223.00,1.681
224.00,1.591
225.00,1.505
226.00,1.420
227.00,1.331
228.00,1.247
229.00,1.169
230.00,1.095
231.00,1.027
232.00,0.965
233.00,0.910
234.00,0.864
235.00,0.824
236.00,0.791
237.00,0.764
238.00,0.742
239.00,0.725
240.00,0.711
241.00,0.701
242.00,0.695
243.00,0.691
244.00,0.689
245.00,0.689
246.00,0.690
247.00,0.692
248.00,0.696
249.00,0.699
250.00,0.704
251.00,0.709
252.00,0.714
253.00,0.720
254.00,0.724
255.00,0.729
256.00,0.734
257.00,0.738
258.00,0.741
259.00,0.742
260.00,0.743
261.00,0.744
262.00,0.745
263.00,0.745
264.00,0.746
265.00,0.744
266.00,0.742
267.00,0.740
268.00,0.735
269.00,0.730
270.00,0.723
271.00,0.716
272.00,0.708
273.00,0.699
274.00,0.688
275.00,0.677
276.00,0.665
277.00,0.651
278.00,0.637
279.00,0.622
280.00,0.608
281.00,0.592
282.00,0.577
283.00,0.559
284.00,0.541
285.00,0.522
286.00,0.505
287.00,0.489
288.00,0.472
289.00,0.456
290.00,0.439
291.00,0.423
292.00,0.408
293.00,0.395
294.00,0.384
295.00,0.373
296.00,0.365
297.00,0.357
298.00,0.349
299.00,0.343
300.00,0.337
301.00,0.331
302.00,0.327
303.00,0.322
304.00,0.318
305.00,0.314
306.00,0.311
307.00,0.307
308.00,0.304
309.00,0.301
310.00,0.298
311.00,0.295
312.00,0.292
313.00,0.290
314.00,0.288
315.00,0.285
316.00,0.283
317.00,0.281
318.00,0.278
319.00,0.275
320.00,0.272
321.00,0.269
322.00,0.267
323.00,0.264
324.00,0.260
325.00,0.257
326.00,0.253
327.00,0.250
328.00,0.245
329.00,0.242
330.00,0.238
331.00,0.234
332.00,0.230
333.00,0.225
334.00,0.221
335.00,0.217
336.00,0.213
337.00,0.209
338.00,0.204
339.00,0.200
340.00,0.197
341.00,0.192
342.00,0.188
343.00,0.184
344.00,0.180
345.00,0.176
346.00,0.173
347.00,0.169
348.00,0.166
349.00,0.163
350.00,0.159
351.00,0.156
352.00,0.153
353.00,0.150
354.00,0.147
355.00,0.145
356.00,0.142
357.00,0.140
358.00,0.137
359.00,0.135
360.00,0.133
361.00,0.131
362.00,0.128
363.00,0.127
364.00,0.125
365.00,0.123
366.00,0.121
367.00,0.120
368.00,0.118
369.00,0.117
370.00,0.115
371.00,0.114
372.00,0.112
373.00,0.111
374.00,0.110
375.00,0.109
376.00,0.107
377.00,0.106
378.00,0.105
379.00,0.104
380.00,0.103
381.00,0.102
382.00,0.101
383.00,0.100
384.00,0.099
385.00,0.098
386.00,0.097
387.00,0.096
388.00,0.095
389.00,0.094
390.00,0.094
391.00,0.093
392.00,0.092
393.00,0.092
394.00,0.091
395.00,0.090
396.00,0.090
397.00,0.089
398.00,0.088
399.00,0.088
400.00,0.087
401.00,0.086
402.00,0.086
403.00,0.085
404.00,0.085
405.00,0.084
406.00,0.084
407.00,0.083
408.00,0.083
409.00,0.082
410.00,0.082
411.00,0.081
412.00,0.081
413.00,0.080
414.00,0.080
415.00,0.079
416.00,0.079
417.00,0.079
418.00,0.078
419.00,0.078
420.00,0.077
421.00,0.077
422.00,0.077
423.00,0.076
424.00,0.076
425.00,0.076
426.00,0.075
427.00,0.075
428.00,0.074
429.00,0.074
430.00,0.074
431.00,0.073
432.00,0.073
433.00,0.073
434.00,0.072
435.00,0.072
436.00,0.072
437.00,0.071
438.00,0.071
439.00,0.071
440.00,0.071
441.00,0.070
442.00,0.070
443.00,0.070
444.00,0.069
445.00,0.069
446.00,0.069
447.00,0.069
448.00,0.069
449.00,0.068
450.00,0.068
451.00,0.068
452.00,0.067
453.00,0.067
454.00,0.067
455.00,0.067
456.00,0.067
457.00,0.066
458.00,0.066
459.00,0.066
460.00,0.066
461.00,0.065
462.00,0.065
463.00,0.065
464.00,0.065
465.00,0.064
466.00,0.064
467.00,0.064
468.00,0.064
469.00,0.064
470.00,0.063
471.00,0.063
472.00,0.063
473.00,0.063
474.00,0.063
475.00,0.062
476.00,0.062
477.00,0.062
478.00,0.062
479.00,0.061
480.00,0.061
481.00,0.061
482.00,0.061
483.00,0.061
484.00,0.060
485.00,0.060
486.00,0.060
487.00,0.060
488.00,0.060
489.00,0.059
490.00,0.059
491.00,0.059
492.00,0.059
493.00,0.059
494.00,0.059
495.00,0.058
496.00,0.058
497.00,0.058
498.00,0.058
499.00,0.058
500.00,0.058
501.00,0.058
502.00,0.057
503.00,0.057
504.00,0.057
505.00,0.057
506.00,0.057
507.00,0.057
508.00,0.056
509.00,0.056
510.00,0.056
511.00,0.056
512.00,0.056
513.00,0.056
514.00,0.056
515.00,0.055
516.00,0.055
517.00,0.055
518.00,0.055
519.00,0.055
520.00,0.055
521.00,0.055
522.00,0.055
523.00,0.055
524.00,0.054
525.00,0.054
526.00,0.054
527.00,0.054
528.00,0.054
529.00,0.054
530.00,0.054
531.00,0.054
532.00,0.053
533.00,0.053
534.00,0.053
535.00,0.053
536.00,0.053
537.00,0.053
538.00,0.053
539.00,0.053
540.00,0.053
541.00,0.052
542.00,0.052
543.00,0.052
544.00,0.052
545.00,0.052
546.00,0.052
547.00,0.052
548.00,0.052
549.00,0.052
550.00,0.051
551.00,0.051
552.00,0.051
553.00,0.051
554.00,0.051
555.00,0.051
556.00,0.051
557.00,0.051
558.00,0.051
559.00,0.051
560.00,0.051
561.00,0.051
562.00,0.050
563.00,0.050
564.00,0.050
565.00,0.050
566.00,0.050
567.00,0.050
568.00,0.050
569.00,0.050
570.00,0.050
571.00,0.050
572.00,0.050
573.00,0.050
574.00,0.049
575.00,0.049
576.00,0.049
577.00,0.049
578.00,0.049
579.00,0.049
580.00,0.049
581.00,0.049
582.00,0.049
583.00,0.049
584.00,0.049
585.00,0.049
586.00,0.049
587.00,0.049
588.00,0.049
589.00,0.049
590.00,0.049
591.00,0.049
592.00,0.049
593.00,0.049
594.00,0.049
595.00,0.049
596.00,0.048
597.00,0.048
598.00,0.048
599.00,0.048
600.00,0.048
601.00,0.048
602.00,0.048
603.00,0.048
604.00,0.048
605.00,0.048
606.00,0.048
607.00,0.048
608.00,0.048
609.00,0.048
610.00,0.048
611.00,0.048
612.00,0.048
613.00,0.048
614.00,0.048
615.00,0.048
616.00,0.048
617.00,0.048
618.00,0.048
619.00,0.048
620.00,0.048
621.00,0.047
622.00,0.047
623.00,0.047
624.00,0.047
625.00,0.047
626.00,0.047
627.00,0.047
628.00,0.047
629.00,0.047
630.00,0.047
631.00,0.047
632.00,0.047
633.00,0.047
634.00,0.047
635.00,0.047
636.00,0.047
637.00,0.047
638.00,0.047
639.00,0.047
640.00,0.047
641.00,0.047
642.00,0.047
643.00,0.047
644.00,0.047
645.00,0.047
646.00,0.046
647.00,0.046
648.00,0.046
649.00,0.046
650.00,0.046
651.00,0.046
652.00,0.046
653.00,0.046
654.00,0.046
655.00,0.046
656.00,0.046
657.00,0.046
658.00,0.046
659.00,0.046
660.00,0.046
661.00,0.046
662.00,0.046
663.00,0.046
664.00,0.046
665.00,0.046
666.00,0.046
667.00,0.046
668.00,0.046
669.00,0.046
670.00,0.046
671.00,0.046
672.00,0.046
673.00,0.046
674.00,0.046
675.00,0.046
676.00,0.046
677.00,0.046
678.00,0.046
679.00,0.046
680.00,0.046
681.00,0.046
682.00,0.046
683.00,0.046
684.00,0.045
685.00,0.045
686.00,0.045
687.00,0.045
688.00,0.045
689.00,0.045
690.00,0.045
691.00,0.045
692.00,0.045
693.00,0.045
694.00,0.045
695.00,0.045
696.00,0.046
697.00,0.046
698.00,0.046
699.00,0.046
700.00,0.046
701.00,0.046
702.00,0.046
703.00,0.046
704.00,0.046
705.00,0.046
706.00,0.046
707.00,0.046
708.00,0.046
709.00,0.046
710.00,0.046
711.00,0.046
712.00,0.046
713.00,0.046
714.00,0.047
715.00,0.047
716.00,0.047
717.00,0.047
718.00,0.047
719.00,0.047
720.00,0.048
721.00,0.048
722.00,0.048
723.00,0.048
724.00,0.048
725.00,0.049
726.00,0.049
727.00,0.049
728.00,0.050
729.00,0.050
730.00,0.050
731.00,0.051
732.00,0.051
733.00,0.052
734.00,0.052
735.00,0.053
736.00,0.053
737.00,0.053
738.00,0.053
739.00,0.053
740.00,0.054
741.00,0.054
742.00,0.054
743.00,0.054
744.00,0.054
745.00,0.054
746.00,0.054
747.00,0.054
748.00,0.054
749.00,0.054
750.00,0.054
751.00,0.054
752.00,0.054
753.00,0.054
754.00,0.054
755.00,0.054
756.00,0.053
757.00,0.053
758.00,0.053
759.00,0.053
760.00,0.054
761.00,0.054
762.00,0.053
763.00,0.053
764.00,0.053
765.00,0.053
766.00,0.053
767.00,0.053
768.00,0.053
769.00,0.053
770.00,0.053
771.00,0.053
772.00,0.053
773.00,0.053
774.00,0.053
775.00,0.053
776.00,0.053
777.00,0.053
778.00,0.052
779.00,0.052
780.00,0.052
781.00,0.052
782.00,0.052
783.00,0.052
784.00,0.052
785.00,0.052
786.00,0.051
787.00,0.051
788.00,0.051
789.00,0.051
790.00,0.051
791.00,0.051
792.00,0.051
793.00,0.051
794.00,0.051
795.00,0.050
796.00,0.050
797.00,0.050
798.00,0.050
799.00,0.050
800.00,0.050
801.00,0.050
802.00,0.050
803.00,0.050
804.00,0.050
805.00,0.050
806.00,0.050
807.00,0.050
808.00,0.050
809.00,0.050
810.00,0.050
811.00,0.050
812.00,0.050
813.00,0.050
814.00,0.050
815.00,0.050
816.00,0.050
817.00,0.050
818.00,0.050
819.00,0.050
820.00,0.050
821.00,0.050
822.00,0.050
823.00,0.051
824.00,0.051
825.00,0.051
826.00,0.052
827.00,0.052
828.00,0.053
829.00,0.053
830.00,0.054
831.00,0.054
832.00,0.055
833.00,0.055
834.00,0.056
835.00,0.056
836.00,0.056
837.00,0.056
838.00,0.056
839.00,0.057
840.00,0.057
841.00,0.057
842.00,0.057
843.00,0.057
844.00,0.057
845.00,0.057
846.00,0.057
847.00,0.057
848.00,0.057
849.00,0.058
850.00,0.058
851.00,0.058
852.00,0.058
853.00,0.058
854.00,0.058
855.00,0.058
856.00,0.058
857.00,0.058
858.00,0.059
859.00,0.059
860.00,0.059
861.00,0.059
862.00,0.059
863.00,0.059
864.00,0.059
865.00,0.059
866.00,0.059
867.00,0.059
868.00,0.060
869.00,0.060
870.00,0.060
871.00,0.060
872.00,0.060
873.00,0.060
874.00,0.061
875.00,0.061
876.00,0.061
877.00,0.061
878.00,0.061
879.00,0.062
880.00,0.062
881.00,0.062
882.00,0.062
883.00,0.063
884.00,0.063
885.00,0.063
886.00,0.063
887.00,0.064
888.00,0.064
889.00,0.064
890.00,0.064
891.00,0.064
892.00,0.065
893.00,0.065
894.00,0.065
895.00,0.065
896.00,0.066
897.00,0.066
898.00,0.066
899.00,0.066
900.00,0.066
