"CharlevoixDominusTriple50x - RawData"
"Wavelength nm.","Abs."
190.00,3.904
191.00,3.557
192.00,3.372
193.00,3.515
194.00,3.708
195.00,3.899
196.00,3.743
197.00,3.934
198.00,3.860
199.00,3.682
200.00,3.915
201.00,3.853
202.00,3.853
203.00,3.870
204.00,3.746
205.00,3.883
206.00,3.875
207.00,3.722
208.00,3.909
209.00,3.937
210.00,3.731
211.00,3.483
212.00,3.427
213.00,3.290
214.00,3.116
215.00,2.978
216.00,2.858
217.00,2.695
218.00,2.564
219.00,2.427
220.00,2.292
221.00,2.169
222.00,2.049
223.00,1.933
224.00,1.820
225.00,1.709
226.00,1.602
227.00,1.492
228.00,1.389
229.00,1.295
230.00,1.206
231.00,1.126
232.00,1.056
233.00,0.995
234.00,0.944
235.00,0.902
236.00,0.867
237.00,0.840
238.00,0.818
239.00,0.802
240.00,0.791
241.00,0.785
242.00,0.782
243.00,0.782
244.00,0.784
245.00,0.788
246.00,0.793
247.00,0.799
248.00,0.807
249.00,0.814
250.00,0.822
251.00,0.830
252.00,0.838
253.00,0.846
254.00,0.853
255.00,0.860
256.00,0.866
257.00,0.871
258.00,0.874
259.00,0.874
260.00,0.874
261.00,0.874
262.00,0.873
263.00,0.873
264.00,0.872
265.00,0.870
266.00,0.866
267.00,0.861
268.00,0.855
269.00,0.846
270.00,0.836
271.00,0.824
272.00,0.812
273.00,0.798
274.00,0.782
275.00,0.765
276.00,0.748
277.00,0.728
278.00,0.707
279.00,0.686
280.00,0.665
281.00,0.644
282.00,0.621
283.00,0.597
284.00,0.572
285.00,0.547
286.00,0.524
287.00,0.502
288.00,0.479
289.00,0.457
290.00,0.434
291.00,0.412
292.00,0.392
293.00,0.376
294.00,0.362
295.00,0.349
296.00,0.339
297.00,0.331
298.00,0.322
299.00,0.315
300.00,0.310
301.00,0.304
302.00,0.300
303.00,0.296
304.00,0.292
305.00,0.289
306.00,0.286
307.00,0.283
308.00,0.281
309.00,0.278
310.00,0.276
311.00,0.274
312.00,0.272
313.00,0.270
314.00,0.268
315.00,0.267
316.00,0.265
317.00,0.262
318.00,0.260
319.00,0.258
320.00,0.255
321.00,0.253
322.00,0.250
323.00,0.247
324.00,0.244
325.00,0.240
326.00,0.236
327.00,0.233
328.00,0.228
329.00,0.224
330.00,0.220
331.00,0.216
332.00,0.211
333.00,0.207
334.00,0.201
335.00,0.197
336.00,0.193
337.00,0.188
338.00,0.183
339.00,0.179
340.00,0.174
341.00,0.168
342.00,0.163
343.00,0.159
344.00,0.154
345.00,0.150
346.00,0.146
347.00,0.142
348.00,0.137
349.00,0.133
350.00,0.130
351.00,0.126
352.00,0.122
353.00,0.119
354.00,0.116
355.00,0.113
356.00,0.110
357.00,0.107
358.00,0.104
359.00,0.101
360.00,0.099
361.00,0.097
362.00,0.094
363.00,0.092
364.00,0.090
365.00,0.088
366.00,0.086
367.00,0.085
368.00,0.083
369.00,0.081
370.00,0.080
371.00,0.078
372.00,0.077
373.00,0.076
374.00,0.075
375.00,0.073
376.00,0.072
377.00,0.071
378.00,0.070
379.00,0.069
380.00,0.068
381.00,0.067
382.00,0.066
383.00,0.065
384.00,0.065
385.00,0.064
386.00,0.063
387.00,0.063
388.00,0.062
389.00,0.061
390.00,0.061
391.00,0.060
392.00,0.059
393.00,0.059
394.00,0.058
395.00,0.058
396.00,0.057
397.00,0.057
398.00,0.057
399.00,0.056
400.00,0.056
401.00,0.055
402.00,0.055
403.00,0.055
404.00,0.055
405.00,0.054
406.00,0.054
407.00,0.054
408.00,0.053
409.00,0.053
410.00,0.053
411.00,0.053
412.00,0.052
413.00,0.052
414.00,0.052
415.00,0.052
416.00,0.051
417.00,0.051
418.00,0.051
419.00,0.051
420.00,0.051
421.00,0.050
422.00,0.050
423.00,0.050
424.00,0.050
425.00,0.050
426.00,0.050
427.00,0.049
428.00,0.049
429.00,0.049
430.00,0.049
431.00,0.049
432.00,0.049
433.00,0.049
434.00,0.049
435.00,0.048
436.00,0.048
437.00,0.048
438.00,0.048
439.00,0.048
440.00,0.048
441.00,0.048
442.00,0.048
443.00,0.048
444.00,0.047
445.00,0.047
446.00,0.047
447.00,0.047
448.00,0.047
449.00,0.047
450.00,0.047
451.00,0.047
452.00,0.047
453.00,0.047
454.00,0.047
455.00,0.046
456.00,0.046
457.00,0.046
458.00,0.046
459.00,0.046
460.00,0.046
461.00,0.046
462.00,0.046
463.00,0.046
464.00,0.046
465.00,0.046
466.00,0.046
467.00,0.046
468.00,0.045
469.00,0.045
470.00,0.045
471.00,0.045
472.00,0.045
473.00,0.045
474.00,0.045
475.00,0.045
476.00,0.045
477.00,0.045
478.00,0.045
479.00,0.045
480.00,0.045
481.00,0.044
482.00,0.044
483.00,0.044
484.00,0.044
485.00,0.044
486.00,0.044
487.00,0.044
488.00,0.044
489.00,0.044
490.00,0.044
491.00,0.044
492.00,0.044
493.00,0.044
494.00,0.044
495.00,0.044
496.00,0.043
497.00,0.043
498.00,0.043
499.00,0.043
500.00,0.043
501.00,0.043
502.00,0.043
503.00,0.043
504.00,0.043
505.00,0.043
506.00,0.043
507.00,0.043
508.00,0.043
509.00,0.043
510.00,0.043
511.00,0.043
512.00,0.043
513.00,0.042
514.00,0.042
515.00,0.042
516.00,0.042
517.00,0.042
518.00,0.042
519.00,0.042
520.00,0.042
521.00,0.042
522.00,0.042
523.00,0.042
524.00,0.042
525.00,0.042
526.00,0.042
527.00,0.042
528.00,0.042
529.00,0.042
530.00,0.042
531.00,0.042
532.00,0.042
533.00,0.042
534.00,0.042
535.00,0.042
536.00,0.042
537.00,0.042
538.00,0.041
539.00,0.041
540.00,0.041
541.00,0.041
542.00,0.041
543.00,0.041
544.00,0.041
545.00,0.041
546.00,0.041
547.00,0.041
548.00,0.041
549.00,0.041
550.00,0.041
551.00,0.041
552.00,0.041
553.00,0.041
554.00,0.041
555.00,0.041
556.00,0.041
557.00,0.041
558.00,0.041
559.00,0.041
560.00,0.041
561.00,0.041
562.00,0.041
563.00,0.041
564.00,0.040
565.00,0.040
566.00,0.040
567.00,0.040
568.00,0.040
569.00,0.040
570.00,0.040
571.00,0.040
572.00,0.040
573.00,0.040
574.00,0.040
575.00,0.040
576.00,0.040
577.00,0.040
578.00,0.040
579.00,0.040
580.00,0.040
581.00,0.040
582.00,0.040
583.00,0.040
584.00,0.040
585.00,0.040
586.00,0.040
587.00,0.040
588.00,0.040
589.00,0.040
590.00,0.040
591.00,0.040
592.00,0.040
593.00,0.040
594.00,0.040
595.00,0.040
596.00,0.040
597.00,0.040
598.00,0.040
599.00,0.040
600.00,0.040
601.00,0.040
602.00,0.040
603.00,0.040
604.00,0.040
605.00,0.040
606.00,0.040
607.00,0.040
608.00,0.040
609.00,0.040
610.00,0.040
611.00,0.040
612.00,0.040
613.00,0.040
614.00,0.040
615.00,0.040
616.00,0.040
617.00,0.040
618.00,0.039
619.00,0.040
620.00,0.040
621.00,0.040
622.00,0.039
623.00,0.039
624.00,0.039
625.00,0.039
626.00,0.039
627.00,0.039
628.00,0.039
629.00,0.039
630.00,0.039
631.00,0.039
632.00,0.039
633.00,0.039
634.00,0.039
635.00,0.039
636.00,0.039
637.00,0.039
638.00,0.039
639.00,0.039
640.00,0.039
641.00,0.039
642.00,0.039
643.00,0.039
644.00,0.039
645.00,0.039
646.00,0.039
647.00,0.039
648.00,0.039
649.00,0.039
650.00,0.039
651.00,0.039
652.00,0.039
653.00,0.039
654.00,0.039
655.00,0.039
656.00,0.039
657.00,0.039
658.00,0.039
659.00,0.039
660.00,0.039
661.00,0.039
662.00,0.039
663.00,0.039
664.00,0.039
665.00,0.039
666.00,0.039
667.00,0.039
668.00,0.039
669.00,0.039
670.00,0.039
671.00,0.039
672.00,0.039
673.00,0.039
674.00,0.039
675.00,0.039
676.00,0.039
677.00,0.039
678.00,0.039
679.00,0.039
680.00,0.039
681.00,0.039
682.00,0.039
683.00,0.039
684.00,0.039
685.00,0.039
686.00,0.039
687.00,0.039
688.00,0.039
689.00,0.039
690.00,0.039
691.00,0.039
692.00,0.039
693.00,0.039
694.00,0.039
695.00,0.039
696.00,0.039
697.00,0.039
698.00,0.039
699.00,0.039
700.00,0.039
701.00,0.039
702.00,0.039
703.00,0.039
704.00,0.039
705.00,0.039
706.00,0.040
707.00,0.040
708.00,0.040
709.00,0.040
710.00,0.040
711.00,0.040
712.00,0.040
713.00,0.040
714.00,0.040
715.00,0.041
716.00,0.041
717.00,0.041
718.00,0.041
719.00,0.041
720.00,0.041
721.00,0.042
722.00,0.042
723.00,0.042
724.00,0.042
725.00,0.043
726.00,0.043
727.00,0.043
728.00,0.044
729.00,0.044
730.00,0.044
731.00,0.045
732.00,0.045
733.00,0.046
734.00,0.046
735.00,0.047
736.00,0.047
737.00,0.047
738.00,0.047
739.00,0.047
740.00,0.047
741.00,0.048
742.00,0.048
743.00,0.048
744.00,0.048
745.00,0.048
746.00,0.048
747.00,0.047
748.00,0.048
749.00,0.048
750.00,0.048
751.00,0.048
752.00,0.048
753.00,0.048
754.00,0.048
755.00,0.048
756.00,0.048
757.00,0.048
758.00,0.047
759.00,0.048
760.00,0.048
761.00,0.048
762.00,0.047
763.00,0.047
764.00,0.047
765.00,0.047
766.00,0.047
767.00,0.047
768.00,0.047
769.00,0.047
770.00,0.047
771.00,0.047
772.00,0.047
773.00,0.047
774.00,0.047
775.00,0.047
776.00,0.047
777.00,0.047
778.00,0.047
779.00,0.047
780.00,0.046
781.00,0.046
782.00,0.046
783.00,0.046
784.00,0.046
785.00,0.046
786.00,0.046
787.00,0.046
788.00,0.046
789.00,0.045
790.00,0.045
791.00,0.045
792.00,0.045
793.00,0.045
794.00,0.045
795.00,0.045
796.00,0.045
797.00,0.045
798.00,0.045
799.00,0.044
800.00,0.044
801.00,0.044
802.00,0.044
803.00,0.044
804.00,0.044
805.00,0.044
806.00,0.044
807.00,0.044
808.00,0.044
809.00,0.044
810.00,0.044
811.00,0.044
812.00,0.044
813.00,0.044
814.00,0.044
815.00,0.044
816.00,0.044
817.00,0.044
818.00,0.044
819.00,0.045
820.00,0.045
821.00,0.045
822.00,0.045
823.00,0.045
824.00,0.046
825.00,0.046
826.00,0.046
827.00,0.047
828.00,0.047
829.00,0.048
830.00,0.048
831.00,0.049
832.00,0.049
833.00,0.050
834.00,0.050
835.00,0.050
836.00,0.051
837.00,0.051
838.00,0.051
839.00,0.051
840.00,0.051
841.00,0.051
842.00,0.051
843.00,0.052
844.00,0.052
845.00,0.052
846.00,0.052
847.00,0.052
848.00,0.052
849.00,0.052
850.00,0.052
851.00,0.052
852.00,0.053
853.00,0.053
854.00,0.053
855.00,0.053
856.00,0.053
857.00,0.053
858.00,0.053
859.00,0.053
860.00,0.053
861.00,0.053
862.00,0.054
863.00,0.054
864.00,0.054
865.00,0.054
866.00,0.054
867.00,0.054
868.00,0.054
869.00,0.054
870.00,0.055
871.00,0.055
872.00,0.055
873.00,0.055
874.00,0.055
875.00,0.055
876.00,0.056
877.00,0.056
878.00,0.056
879.00,0.056
880.00,0.057
881.00,0.057
882.00,0.057
883.00,0.057
884.00,0.057
885.00,0.058
886.00,0.058
887.00,0.058
888.00,0.058
889.00,0.059
890.00,0.059
891.00,0.059
892.00,0.059
893.00,0.060
894.00,0.060
895.00,0.060
896.00,0.061
897.00,0.061
898.00,0.061
899.00,0.061
900.00,0.061
