"CorsairPorter100x - RawData"
"Wavelength nm.","Abs."
190.00,3.306
191.00,3.240
192.00,3.287
193.00,3.031
194.00,3.291
195.00,3.506
196.00,3.314
197.00,3.403
198.00,3.286
199.00,3.340
200.00,3.356
201.00,3.197
202.00,3.159
203.00,3.092
204.00,3.001
205.00,2.884
206.00,2.779
207.00,2.683
208.00,2.571
209.00,2.482
210.00,2.396
211.00,2.314
212.00,2.231
213.00,2.155
214.00,2.084
215.00,2.016
216.00,1.945
217.00,1.882
218.00,1.816
219.00,1.755
220.00,1.696
221.00,1.638
222.00,1.582
223.00,1.527
224.00,1.470
225.00,1.417
226.00,1.364
227.00,1.311
228.00,1.259
229.00,1.211
230.00,1.164
231.00,1.120
232.00,1.079
233.00,1.040
234.00,1.005
235.00,0.974
236.00,0.946
237.00,0.921
238.00,0.897
239.00,0.876
240.00,0.857
241.00,0.841
242.00,0.829
243.00,0.820
244.00,0.812
245.00,0.806
246.00,0.802
247.00,0.799
248.00,0.797
249.00,0.796
250.00,0.796
251.00,0.796
252.00,0.797
253.00,0.800
254.00,0.802
255.00,0.804
256.00,0.807
257.00,0.809
258.00,0.811
259.00,0.812
260.00,0.814
261.00,0.815
262.00,0.817
263.00,0.819
264.00,0.820
265.00,0.822
266.00,0.823
267.00,0.823
268.00,0.823
269.00,0.822
270.00,0.820
271.00,0.818
272.00,0.816
273.00,0.812
274.00,0.808
275.00,0.804
276.00,0.798
277.00,0.791
278.00,0.783
279.00,0.775
280.00,0.767
281.00,0.757
282.00,0.747
283.00,0.736
284.00,0.724
285.00,0.712
286.00,0.700
287.00,0.687
288.00,0.674
289.00,0.660
290.00,0.646
291.00,0.631
292.00,0.618
293.00,0.605
294.00,0.595
295.00,0.584
296.00,0.574
297.00,0.565
298.00,0.555
299.00,0.546
300.00,0.538
301.00,0.530
302.00,0.522
303.00,0.514
304.00,0.507
305.00,0.500
306.00,0.493
307.00,0.486
308.00,0.479
309.00,0.473
310.00,0.466
311.00,0.460
312.00,0.454
313.00,0.449
314.00,0.444
315.00,0.438
316.00,0.433
317.00,0.428
318.00,0.422
319.00,0.417
320.00,0.412
321.00,0.406
322.00,0.401
323.00,0.396
324.00,0.391
325.00,0.386
326.00,0.380
327.00,0.375
328.00,0.369
329.00,0.364
330.00,0.359
331.00,0.354
332.00,0.348
333.00,0.343
334.00,0.338
335.00,0.333
336.00,0.328
337.00,0.323
338.00,0.318
339.00,0.314
340.00,0.309
341.00,0.303
342.00,0.299
343.00,0.294
344.00,0.289
345.00,0.285
346.00,0.281
347.00,0.277
348.00,0.272
349.00,0.268
350.00,0.265
351.00,0.261
352.00,0.257
353.00,0.254
354.00,0.250
355.00,0.247
356.00,0.243
357.00,0.240
358.00,0.237
359.00,0.234
360.00,0.231
361.00,0.228
362.00,0.225
363.00,0.222
364.00,0.219
365.00,0.217
366.00,0.214
367.00,0.212
368.00,0.209
369.00,0.207
370.00,0.204
371.00,0.202
372.00,0.200
373.00,0.197
374.00,0.195
375.00,0.193
376.00,0.190
377.00,0.188
378.00,0.186
379.00,0.184
380.00,0.182
381.00,0.180
382.00,0.178
383.00,0.176
384.00,0.174
385.00,0.173
386.00,0.171
387.00,0.169
388.00,0.167
389.00,0.166
390.00,0.164
391.00,0.162
392.00,0.161
393.00,0.159
394.00,0.158
395.00,0.156
396.00,0.154
397.00,0.153
398.00,0.152
399.00,0.150
400.00,0.149
401.00,0.148
402.00,0.146
403.00,0.145
404.00,0.144
405.00,0.142
406.00,0.141
407.00,0.140
408.00,0.138
409.00,0.137
410.00,0.136
411.00,0.135
412.00,0.134
413.00,0.132
414.00,0.131
415.00,0.130
416.00,0.129
417.00,0.128
418.00,0.127
419.00,0.126
420.00,0.125
421.00,0.124
422.00,0.123
423.00,0.122
424.00,0.121
425.00,0.120
426.00,0.119
427.00,0.118
428.00,0.117
429.00,0.116
430.00,0.116
431.00,0.115
432.00,0.114
433.00,0.113
434.00,0.112
435.00,0.111
436.00,0.110
437.00,0.109
438.00,0.109
439.00,0.108
440.00,0.107
441.00,0.106
442.00,0.105
443.00,0.105
444.00,0.104
445.00,0.103
446.00,0.103
447.00,0.102
448.00,0.101
449.00,0.101
450.00,0.100
451.00,0.099
452.00,0.098
453.00,0.098
454.00,0.097
455.00,0.097
456.00,0.096
457.00,0.095
458.00,0.095
459.00,0.094
460.00,0.093
461.00,0.093
462.00,0.092
463.00,0.091
464.00,0.091
465.00,0.090
466.00,0.090
467.00,0.089
468.00,0.089
469.00,0.088
470.00,0.088
471.00,0.087
472.00,0.087
473.00,0.086
474.00,0.086
475.00,0.085
476.00,0.084
477.00,0.084
478.00,0.083
479.00,0.083
480.00,0.082
481.00,0.082
482.00,0.081
483.00,0.081
484.00,0.080
485.00,0.080
486.00,0.080
487.00,0.079
488.00,0.079
489.00,0.078
490.00,0.078
491.00,0.077
492.00,0.077
493.00,0.077
494.00,0.076
495.00,0.076
496.00,0.075
497.00,0.075
498.00,0.075
499.00,0.074
500.00,0.074
501.00,0.073
502.00,0.073
503.00,0.073
504.00,0.072
505.00,0.072
506.00,0.072
507.00,0.071
508.00,0.071
509.00,0.070
510.00,0.070
511.00,0.070
512.00,0.069
513.00,0.069
514.00,0.069
515.00,0.068
516.00,0.068
517.00,0.068
518.00,0.068
519.00,0.067
520.00,0.067
521.00,0.067
522.00,0.066
523.00,0.066
524.00,0.066
525.00,0.065
526.00,0.065
527.00,0.065
528.00,0.064
529.00,0.064
530.00,0.064
531.00,0.064
532.00,0.063
533.00,0.063
534.00,0.063
535.00,0.063
536.00,0.063
537.00,0.062
538.00,0.062
539.00,0.061
540.00,0.061
541.00,0.061
542.00,0.061
543.00,0.060
544.00,0.060
545.00,0.060
546.00,0.060
547.00,0.060
548.00,0.059
549.00,0.059
550.00,0.059
551.00,0.059
552.00,0.058
553.00,0.058
554.00,0.058
555.00,0.058
556.00,0.058
557.00,0.057
558.00,0.057
559.00,0.057
560.00,0.057
561.00,0.057
562.00,0.056
563.00,0.056
564.00,0.056
565.00,0.056
566.00,0.056
567.00,0.056
568.00,0.055
569.00,0.055
570.00,0.055
571.00,0.055
572.00,0.055
573.00,0.055
574.00,0.054
575.00,0.054
576.00,0.054
577.00,0.054
578.00,0.054
579.00,0.054
580.00,0.053
581.00,0.053
582.00,0.053
583.00,0.053
584.00,0.053
585.00,0.053
586.00,0.053
587.00,0.052
588.00,0.052
589.00,0.052
590.00,0.052
591.00,0.052
592.00,0.052
593.00,0.052
594.00,0.052
595.00,0.051
596.00,0.051
597.00,0.051
598.00,0.051
599.00,0.051
600.00,0.051
601.00,0.051
602.00,0.051
603.00,0.051
604.00,0.051
605.00,0.051
606.00,0.051
607.00,0.050
608.00,0.050
609.00,0.050
610.00,0.050
611.00,0.050
612.00,0.050
613.00,0.050
614.00,0.050
615.00,0.049
616.00,0.049
617.00,0.049
618.00,0.049
619.00,0.049
620.00,0.049
621.00,0.049
622.00,0.049
623.00,0.049
624.00,0.049
625.00,0.048
626.00,0.048
627.00,0.048
628.00,0.048
629.00,0.048
630.00,0.048
631.00,0.048
632.00,0.048
633.00,0.048
634.00,0.048
635.00,0.048
636.00,0.047
637.00,0.047
638.00,0.047
639.00,0.047
640.00,0.047
641.00,0.047
642.00,0.047
643.00,0.047
644.00,0.047
645.00,0.047
646.00,0.047
647.00,0.047
648.00,0.047
649.00,0.046
650.00,0.046
651.00,0.046
652.00,0.046
653.00,0.046
654.00,0.046
655.00,0.046
656.00,0.046
657.00,0.046
658.00,0.046
659.00,0.046
660.00,0.046
661.00,0.046
662.00,0.046
663.00,0.046
664.00,0.046
665.00,0.045
666.00,0.045
667.00,0.045
668.00,0.045
669.00,0.045
670.00,0.045
671.00,0.045
672.00,0.045
673.00,0.045
674.00,0.045
675.00,0.045
676.00,0.045
677.00,0.045
678.00,0.045
679.00,0.045
680.00,0.045
681.00,0.045
682.00,0.045
683.00,0.045
684.00,0.044
685.00,0.044
686.00,0.044
687.00,0.044
688.00,0.044
689.00,0.044
690.00,0.044
691.00,0.044
692.00,0.044
693.00,0.044
694.00,0.044
695.00,0.044
696.00,0.044
697.00,0.044
698.00,0.044
699.00,0.044
700.00,0.044
701.00,0.044
702.00,0.044
703.00,0.044
704.00,0.044
705.00,0.044
706.00,0.044
707.00,0.044
708.00,0.044
709.00,0.045
710.00,0.045
711.00,0.045
712.00,0.045
713.00,0.045
714.00,0.045
715.00,0.045
716.00,0.045
717.00,0.045
718.00,0.046
719.00,0.046
720.00,0.046
721.00,0.046
722.00,0.046
723.00,0.046
724.00,0.047
725.00,0.047
726.00,0.047
727.00,0.048
728.00,0.048
729.00,0.048
730.00,0.049
731.00,0.049
732.00,0.050
733.00,0.050
734.00,0.050
735.00,0.051
736.00,0.051
737.00,0.051
738.00,0.051
739.00,0.052
740.00,0.052
741.00,0.052
742.00,0.052
743.00,0.052
744.00,0.052
745.00,0.052
746.00,0.051
747.00,0.051
748.00,0.051
749.00,0.051
750.00,0.051
751.00,0.051
752.00,0.051
753.00,0.051
754.00,0.051
755.00,0.051
756.00,0.051
757.00,0.051
758.00,0.051
759.00,0.051
760.00,0.051
761.00,0.051
762.00,0.051
763.00,0.051
764.00,0.051
765.00,0.051
766.00,0.051
767.00,0.051
768.00,0.051
769.00,0.051
770.00,0.050
771.00,0.050
772.00,0.050
773.00,0.050
774.00,0.050
775.00,0.050
776.00,0.050
777.00,0.050
778.00,0.050
779.00,0.050
780.00,0.050
781.00,0.049
782.00,0.049
783.00,0.049
784.00,0.049
785.00,0.049
786.00,0.049
787.00,0.049
788.00,0.049
789.00,0.049
790.00,0.048
791.00,0.048
792.00,0.048
793.00,0.048
794.00,0.048
795.00,0.048
796.00,0.048
797.00,0.048
798.00,0.047
799.00,0.047
800.00,0.047
801.00,0.047
802.00,0.047
803.00,0.047
804.00,0.047
805.00,0.047
806.00,0.047
807.00,0.047
808.00,0.047
809.00,0.047
810.00,0.047
811.00,0.047
812.00,0.047
813.00,0.047
814.00,0.047
815.00,0.047
816.00,0.047
817.00,0.047
818.00,0.047
819.00,0.047
820.00,0.047
821.00,0.047
822.00,0.048
823.00,0.048
824.00,0.048
825.00,0.049
826.00,0.049
827.00,0.049
828.00,0.050
829.00,0.051
830.00,0.051
831.00,0.052
832.00,0.052
833.00,0.053
834.00,0.053
835.00,0.053
836.00,0.053
837.00,0.053
838.00,0.054
839.00,0.054
840.00,0.054
841.00,0.054
842.00,0.054
843.00,0.054
844.00,0.054
845.00,0.054
846.00,0.054
847.00,0.055
848.00,0.055
849.00,0.055
850.00,0.055
851.00,0.055
852.00,0.055
853.00,0.055
854.00,0.055
855.00,0.055
856.00,0.056
857.00,0.056
858.00,0.056
859.00,0.056
860.00,0.056
861.00,0.056
862.00,0.056
863.00,0.056
864.00,0.056
865.00,0.056
866.00,0.057
867.00,0.057
868.00,0.057
869.00,0.057
870.00,0.057
871.00,0.057
872.00,0.057
873.00,0.058
874.00,0.058
875.00,0.058
876.00,0.058
877.00,0.058
878.00,0.059
879.00,0.059
880.00,0.059
881.00,0.059
882.00,0.060
883.00,0.060
884.00,0.060
885.00,0.060
886.00,0.061
887.00,0.061
888.00,0.061
889.00,0.061
890.00,0.061
891.00,0.062
892.00,0.062
893.00,0.062
894.00,0.062
895.00,0.063
896.00,0.063
897.00,0.063
898.00,0.063
899.00,0.064
900.00,0.064
