"DieuDuCielCorneDuDiable50x - RawData"
"Wavelength nm.","Abs."
190.00,3.279
191.00,3.701
192.00,3.899
193.00,3.694
194.00,3.813
195.00,3.692
196.00,3.787
197.00,3.887
198.00,3.949
199.00,3.876
200.00,3.947
201.00,3.903
202.00,3.904
203.00,3.957
204.00,3.942
205.00,3.937
206.00,3.945
207.00,3.943
208.00,3.947
209.00,3.918
210.00,3.953
211.00,3.923
212.00,3.972
213.00,3.677
214.00,3.729
215.00,3.542
216.00,3.505
217.00,3.333
218.00,3.147
219.00,3.001
220.00,2.867
221.00,2.749
222.00,2.624
223.00,2.510
224.00,2.397
225.00,2.278
226.00,2.162
227.00,2.043
228.00,1.931
229.00,1.828
230.00,1.730
231.00,1.643
232.00,1.566
233.00,1.492
234.00,1.429
235.00,1.376
236.00,1.331
237.00,1.292
238.00,1.258
239.00,1.230
240.00,1.207
241.00,1.189
242.00,1.176
243.00,1.168
244.00,1.161
245.00,1.158
246.00,1.157
247.00,1.157
248.00,1.159
249.00,1.162
250.00,1.166
251.00,1.172
252.00,1.178
253.00,1.185
254.00,1.191
255.00,1.198
256.00,1.204
257.00,1.209
258.00,1.213
259.00,1.215
260.00,1.218
261.00,1.220
262.00,1.222
263.00,1.223
264.00,1.224
265.00,1.224
266.00,1.224
267.00,1.224
268.00,1.223
269.00,1.219
270.00,1.213
271.00,1.205
272.00,1.196
273.00,1.186
274.00,1.174
275.00,1.162
276.00,1.148
277.00,1.134
278.00,1.118
279.00,1.100
280.00,1.083
281.00,1.064
282.00,1.044
283.00,1.021
284.00,0.998
285.00,0.973
286.00,0.950
287.00,0.927
288.00,0.902
289.00,0.877
290.00,0.851
291.00,0.826
292.00,0.802
293.00,0.782
294.00,0.764
295.00,0.748
296.00,0.734
297.00,0.721
298.00,0.708
299.00,0.696
300.00,0.684
301.00,0.673
302.00,0.663
303.00,0.653
304.00,0.644
305.00,0.634
306.00,0.625
307.00,0.617
308.00,0.607
309.00,0.598
310.00,0.589
311.00,0.581
312.00,0.573
313.00,0.565
314.00,0.556
315.00,0.549
316.00,0.541
317.00,0.533
318.00,0.525
319.00,0.517
320.00,0.509
321.00,0.501
322.00,0.492
323.00,0.484
324.00,0.476
325.00,0.468
326.00,0.460
327.00,0.451
328.00,0.442
329.00,0.434
330.00,0.425
331.00,0.417
332.00,0.408
333.00,0.400
334.00,0.392
335.00,0.384
336.00,0.376
337.00,0.369
338.00,0.361
339.00,0.353
340.00,0.346
341.00,0.336
342.00,0.327
343.00,0.320
344.00,0.314
345.00,0.306
346.00,0.300
347.00,0.294
348.00,0.287
349.00,0.281
350.00,0.275
351.00,0.269
352.00,0.264
353.00,0.258
354.00,0.253
355.00,0.249
356.00,0.244
357.00,0.239
358.00,0.234
359.00,0.229
360.00,0.225
361.00,0.221
362.00,0.217
363.00,0.213
364.00,0.210
365.00,0.206
366.00,0.202
367.00,0.199
368.00,0.196
369.00,0.193
370.00,0.190
371.00,0.187
372.00,0.184
373.00,0.181
374.00,0.178
375.00,0.175
376.00,0.173
377.00,0.170
378.00,0.167
379.00,0.164
380.00,0.162
381.00,0.159
382.00,0.157
383.00,0.155
384.00,0.153
385.00,0.150
386.00,0.148
387.00,0.146
388.00,0.144
389.00,0.142
390.00,0.140
391.00,0.139
392.00,0.137
393.00,0.135
394.00,0.133
395.00,0.131
396.00,0.130
397.00,0.128
398.00,0.127
399.00,0.125
400.00,0.124
401.00,0.123
402.00,0.121
403.00,0.120
404.00,0.119
405.00,0.117
406.00,0.116
407.00,0.115
408.00,0.114
409.00,0.113
410.00,0.112
411.00,0.111
412.00,0.110
413.00,0.109
414.00,0.108
415.00,0.107
416.00,0.106
417.00,0.105
418.00,0.104
419.00,0.104
420.00,0.103
421.00,0.102
422.00,0.101
423.00,0.101
424.00,0.100
425.00,0.099
426.00,0.098
427.00,0.098
428.00,0.097
429.00,0.096
430.00,0.096
431.00,0.095
432.00,0.095
433.00,0.094
434.00,0.093
435.00,0.093
436.00,0.092
437.00,0.092
438.00,0.091
439.00,0.091
440.00,0.090
441.00,0.090
442.00,0.089
443.00,0.089
444.00,0.088
445.00,0.088
446.00,0.087
447.00,0.087
448.00,0.086
449.00,0.086
450.00,0.085
451.00,0.085
452.00,0.085
453.00,0.084
454.00,0.084
455.00,0.083
456.00,0.083
457.00,0.083
458.00,0.082
459.00,0.082
460.00,0.081
461.00,0.081
462.00,0.081
463.00,0.080
464.00,0.080
465.00,0.080
466.00,0.079
467.00,0.079
468.00,0.079
469.00,0.078
470.00,0.078
471.00,0.078
472.00,0.077
473.00,0.077
474.00,0.077
475.00,0.076
476.00,0.076
477.00,0.076
478.00,0.075
479.00,0.075
480.00,0.075
481.00,0.074
482.00,0.074
483.00,0.074
484.00,0.074
485.00,0.073
486.00,0.073
487.00,0.073
488.00,0.072
489.00,0.072
490.00,0.072
491.00,0.072
492.00,0.071
493.00,0.071
494.00,0.071
495.00,0.071
496.00,0.070
497.00,0.070
498.00,0.070
499.00,0.070
500.00,0.070
501.00,0.069
502.00,0.069
503.00,0.069
504.00,0.069
505.00,0.068
506.00,0.068
507.00,0.068
508.00,0.068
509.00,0.068
510.00,0.067
511.00,0.067
512.00,0.067
513.00,0.067
514.00,0.067
515.00,0.066
516.00,0.066
517.00,0.066
518.00,0.066
519.00,0.066
520.00,0.066
521.00,0.065
522.00,0.065
523.00,0.065
524.00,0.065
525.00,0.065
526.00,0.064
527.00,0.064
528.00,0.064
529.00,0.064
530.00,0.064
531.00,0.064
532.00,0.064
533.00,0.063
534.00,0.063
535.00,0.063
536.00,0.063
537.00,0.063
538.00,0.063
539.00,0.062
540.00,0.062
541.00,0.062
542.00,0.062
543.00,0.062
544.00,0.062
545.00,0.062
546.00,0.061
547.00,0.061
548.00,0.061
549.00,0.061
550.00,0.061
551.00,0.061
552.00,0.061
553.00,0.061
554.00,0.061
555.00,0.060
556.00,0.060
557.00,0.060
558.00,0.060
559.00,0.060
560.00,0.060
561.00,0.060
562.00,0.060
563.00,0.060
564.00,0.060
565.00,0.059
566.00,0.059
567.00,0.059
568.00,0.059
569.00,0.059
570.00,0.059
571.00,0.059
572.00,0.059
573.00,0.059
574.00,0.059
575.00,0.059
576.00,0.059
577.00,0.058
578.00,0.058
579.00,0.058
580.00,0.058
581.00,0.058
582.00,0.058
583.00,0.058
584.00,0.058
585.00,0.058
586.00,0.058
587.00,0.058
588.00,0.058
589.00,0.058
590.00,0.058
591.00,0.058
592.00,0.058
593.00,0.058
594.00,0.058
595.00,0.057
596.00,0.057
597.00,0.057
598.00,0.057
599.00,0.057
600.00,0.057
601.00,0.057
602.00,0.057
603.00,0.057
604.00,0.057
605.00,0.057
606.00,0.057
607.00,0.057
608.00,0.057
609.00,0.057
610.00,0.057
611.00,0.057
612.00,0.057
613.00,0.057
614.00,0.057
615.00,0.057
616.00,0.057
617.00,0.056
618.00,0.056
619.00,0.056
620.00,0.056
621.00,0.056
622.00,0.056
623.00,0.056
624.00,0.056
625.00,0.056
626.00,0.056
627.00,0.056
628.00,0.056
629.00,0.056
630.00,0.056
631.00,0.056
632.00,0.056
633.00,0.056
634.00,0.056
635.00,0.056
636.00,0.056
637.00,0.055
638.00,0.055
639.00,0.055
640.00,0.055
641.00,0.055
642.00,0.055
643.00,0.055
644.00,0.055
645.00,0.055
646.00,0.055
647.00,0.055
648.00,0.055
649.00,0.055
650.00,0.055
651.00,0.055
652.00,0.055
653.00,0.055
654.00,0.055
655.00,0.055
656.00,0.055
657.00,0.055
658.00,0.055
659.00,0.055
660.00,0.055
661.00,0.055
662.00,0.055
663.00,0.055
664.00,0.055
665.00,0.055
666.00,0.055
667.00,0.055
668.00,0.055
669.00,0.055
670.00,0.055
671.00,0.055
672.00,0.055
673.00,0.055
674.00,0.055
675.00,0.055
676.00,0.055
677.00,0.055
678.00,0.055
679.00,0.055
680.00,0.054
681.00,0.054
682.00,0.055
683.00,0.054
684.00,0.054
685.00,0.054
686.00,0.054
687.00,0.054
688.00,0.054
689.00,0.054
690.00,0.054
691.00,0.054
692.00,0.054
693.00,0.054
694.00,0.054
695.00,0.054
696.00,0.055
697.00,0.055
698.00,0.054
699.00,0.055
700.00,0.055
701.00,0.055
702.00,0.055
703.00,0.055
704.00,0.055
705.00,0.055
706.00,0.055
707.00,0.055
708.00,0.055
709.00,0.055
710.00,0.055
711.00,0.055
712.00,0.055
713.00,0.056
714.00,0.056
715.00,0.056
716.00,0.056
717.00,0.056
718.00,0.056
719.00,0.056
720.00,0.057
721.00,0.057
722.00,0.057
723.00,0.057
724.00,0.058
725.00,0.058
726.00,0.058
727.00,0.058
728.00,0.059
729.00,0.059
730.00,0.060
731.00,0.060
732.00,0.061
733.00,0.061
734.00,0.061
735.00,0.062
736.00,0.062
737.00,0.062
738.00,0.063
739.00,0.063
740.00,0.063
741.00,0.063
742.00,0.063
743.00,0.063
744.00,0.063
745.00,0.063
746.00,0.063
747.00,0.063
748.00,0.063
749.00,0.063
750.00,0.063
751.00,0.063
752.00,0.063
753.00,0.063
754.00,0.063
755.00,0.063
756.00,0.063
757.00,0.063
758.00,0.063
759.00,0.063
760.00,0.063
761.00,0.063
762.00,0.063
763.00,0.063
764.00,0.062
765.00,0.062
766.00,0.062
767.00,0.062
768.00,0.062
769.00,0.062
770.00,0.062
771.00,0.062
772.00,0.062
773.00,0.062
774.00,0.062
775.00,0.062
776.00,0.062
777.00,0.062
778.00,0.062
779.00,0.061
780.00,0.061
781.00,0.061
782.00,0.061
783.00,0.061
784.00,0.061
785.00,0.061
786.00,0.061
787.00,0.061
788.00,0.061
789.00,0.061
790.00,0.060
791.00,0.060
792.00,0.060
793.00,0.060
794.00,0.060
795.00,0.060
796.00,0.060
797.00,0.060
798.00,0.059
799.00,0.059
800.00,0.059
801.00,0.059
802.00,0.059
803.00,0.059
804.00,0.059
805.00,0.059
806.00,0.059
807.00,0.059
808.00,0.059
809.00,0.059
810.00,0.059
811.00,0.059
812.00,0.059
813.00,0.059
814.00,0.059
815.00,0.059
816.00,0.059
817.00,0.059
818.00,0.059
819.00,0.059
820.00,0.059
821.00,0.059
822.00,0.060
823.00,0.060
824.00,0.060
825.00,0.061
826.00,0.061
827.00,0.062
828.00,0.062
829.00,0.063
830.00,0.063
831.00,0.064
832.00,0.064
833.00,0.065
834.00,0.065
835.00,0.065
836.00,0.065
837.00,0.066
838.00,0.066
839.00,0.066
840.00,0.066
841.00,0.066
842.00,0.066
843.00,0.066
844.00,0.066
845.00,0.066
846.00,0.067
847.00,0.067
848.00,0.067
849.00,0.067
850.00,0.067
851.00,0.067
852.00,0.067
853.00,0.067
854.00,0.067
855.00,0.067
856.00,0.067
857.00,0.068
858.00,0.068
859.00,0.068
860.00,0.068
861.00,0.068
862.00,0.068
863.00,0.068
864.00,0.068
865.00,0.068
866.00,0.068
867.00,0.069
868.00,0.069
869.00,0.069
870.00,0.069
871.00,0.069
872.00,0.069
873.00,0.070
874.00,0.070
875.00,0.070
876.00,0.070
877.00,0.070
878.00,0.070
879.00,0.071
880.00,0.071
881.00,0.071
882.00,0.071
883.00,0.072
884.00,0.072
885.00,0.072
886.00,0.072
887.00,0.072
888.00,0.073
889.00,0.073
890.00,0.073
891.00,0.073
892.00,0.074
893.00,0.074
894.00,0.074
895.00,0.074
896.00,0.074
897.00,0.075
898.00,0.075
899.00,0.075
900.00,0.075
