"Penombre100x - RawData"
"Wavelength nm.","Abs."
190.00,3.474
191.00,3.107
192.00,3.490
193.00,3.334
194.00,3.724
195.00,3.749
196.00,3.437
197.00,3.503
198.00,3.461
199.00,3.333
200.00,3.754
201.00,3.474
202.00,3.143
203.00,3.098
204.00,2.946
205.00,2.805
206.00,2.694
207.00,2.572
208.00,2.448
209.00,2.337
210.00,2.246
211.00,2.154
212.00,2.063
213.00,1.976
214.00,1.890
215.00,1.812
216.00,1.735
217.00,1.662
218.00,1.590
219.00,1.521
220.00,1.455
221.00,1.395
222.00,1.336
223.00,1.278
224.00,1.221
225.00,1.166
226.00,1.110
227.00,1.054
228.00,1.000
229.00,0.951
230.00,0.904
231.00,0.863
232.00,0.825
233.00,0.791
234.00,0.762
235.00,0.736
236.00,0.713
237.00,0.694
238.00,0.677
239.00,0.663
240.00,0.652
241.00,0.642
242.00,0.635
243.00,0.630
244.00,0.626
245.00,0.623
246.00,0.622
247.00,0.621
248.00,0.621
249.00,0.621
250.00,0.622
251.00,0.624
252.00,0.627
253.00,0.629
254.00,0.631
255.00,0.634
256.00,0.636
257.00,0.637
258.00,0.638
259.00,0.639
260.00,0.639
261.00,0.639
262.00,0.640
263.00,0.640
264.00,0.640
265.00,0.640
266.00,0.640
267.00,0.640
268.00,0.639
269.00,0.637
270.00,0.634
271.00,0.631
272.00,0.626
273.00,0.621
274.00,0.615
275.00,0.608
276.00,0.602
277.00,0.594
278.00,0.585
279.00,0.576
280.00,0.566
281.00,0.556
282.00,0.545
283.00,0.532
284.00,0.519
285.00,0.506
286.00,0.493
287.00,0.480
288.00,0.467
289.00,0.453
290.00,0.438
291.00,0.424
292.00,0.412
293.00,0.400
294.00,0.391
295.00,0.381
296.00,0.373
297.00,0.366
298.00,0.359
299.00,0.353
300.00,0.347
301.00,0.341
302.00,0.336
303.00,0.331
304.00,0.327
305.00,0.323
306.00,0.319
307.00,0.315
308.00,0.311
309.00,0.308
310.00,0.305
311.00,0.301
312.00,0.299
313.00,0.296
314.00,0.293
315.00,0.290
316.00,0.287
317.00,0.285
318.00,0.282
319.00,0.280
320.00,0.277
321.00,0.274
322.00,0.271
323.00,0.268
324.00,0.265
325.00,0.262
326.00,0.259
327.00,0.255
328.00,0.252
329.00,0.249
330.00,0.245
331.00,0.241
332.00,0.238
333.00,0.234
334.00,0.231
335.00,0.227
336.00,0.224
337.00,0.220
338.00,0.217
339.00,0.214
340.00,0.210
341.00,0.206
342.00,0.202
343.00,0.199
344.00,0.196
345.00,0.192
346.00,0.189
347.00,0.186
348.00,0.183
349.00,0.181
350.00,0.177
351.00,0.175
352.00,0.172
353.00,0.169
354.00,0.167
355.00,0.164
356.00,0.162
357.00,0.160
358.00,0.157
359.00,0.155
360.00,0.153
361.00,0.151
362.00,0.149
363.00,0.147
364.00,0.145
365.00,0.143
366.00,0.142
367.00,0.140
368.00,0.138
369.00,0.136
370.00,0.135
371.00,0.133
372.00,0.131
373.00,0.130
374.00,0.128
375.00,0.127
376.00,0.125
377.00,0.124
378.00,0.122
379.00,0.121
380.00,0.119
381.00,0.118
382.00,0.116
383.00,0.115
384.00,0.114
385.00,0.112
386.00,0.111
387.00,0.110
388.00,0.109
389.00,0.107
390.00,0.106
391.00,0.105
392.00,0.104
393.00,0.103
394.00,0.101
395.00,0.100
396.00,0.099
397.00,0.098
398.00,0.097
399.00,0.096
400.00,0.095
401.00,0.094
402.00,0.094
403.00,0.093
404.00,0.092
405.00,0.091
406.00,0.090
407.00,0.089
408.00,0.088
409.00,0.088
410.00,0.087
411.00,0.086
412.00,0.085
413.00,0.085
414.00,0.084
415.00,0.083
416.00,0.083
417.00,0.082
418.00,0.082
419.00,0.081
420.00,0.080
421.00,0.080
422.00,0.079
423.00,0.079
424.00,0.078
425.00,0.077
426.00,0.077
427.00,0.076
428.00,0.076
429.00,0.075
430.00,0.075
431.00,0.074
432.00,0.074
433.00,0.073
434.00,0.073
435.00,0.072
436.00,0.072
437.00,0.071
438.00,0.071
439.00,0.071
440.00,0.070
441.00,0.070
442.00,0.069
443.00,0.069
444.00,0.069
445.00,0.068
446.00,0.068
447.00,0.068
448.00,0.067
449.00,0.067
450.00,0.066
451.00,0.066
452.00,0.066
453.00,0.065
454.00,0.065
455.00,0.065
456.00,0.064
457.00,0.064
458.00,0.064
459.00,0.063
460.00,0.063
461.00,0.063
462.00,0.062
463.00,0.062
464.00,0.062
465.00,0.061
466.00,0.061
467.00,0.061
468.00,0.061
469.00,0.060
470.00,0.060
471.00,0.060
472.00,0.059
473.00,0.059
474.00,0.059
475.00,0.059
476.00,0.058
477.00,0.058
478.00,0.058
479.00,0.057
480.00,0.057
481.00,0.057
482.00,0.057
483.00,0.056
484.00,0.056
485.00,0.056
486.00,0.056
487.00,0.055
488.00,0.055
489.00,0.055
490.00,0.055
491.00,0.055
492.00,0.054
493.00,0.054
494.00,0.054
495.00,0.054
496.00,0.053
497.00,0.053
498.00,0.053
499.00,0.053
500.00,0.053
501.00,0.052
502.00,0.052
503.00,0.052
504.00,0.052
505.00,0.052
506.00,0.051
507.00,0.051
508.00,0.051
509.00,0.051
510.00,0.051
511.00,0.051
512.00,0.050
513.00,0.050
514.00,0.050
515.00,0.050
516.00,0.050
517.00,0.050
518.00,0.049
519.00,0.049
520.00,0.049
521.00,0.049
522.00,0.049
523.00,0.049
524.00,0.048
525.00,0.048
526.00,0.048
527.00,0.048
528.00,0.048
529.00,0.048
530.00,0.047
531.00,0.047
532.00,0.047
533.00,0.047
534.00,0.047
535.00,0.047
536.00,0.047
537.00,0.046
538.00,0.046
539.00,0.046
540.00,0.046
541.00,0.046
542.00,0.046
543.00,0.046
544.00,0.046
545.00,0.045
546.00,0.045
547.00,0.045
548.00,0.045
549.00,0.045
550.00,0.045
551.00,0.045
552.00,0.045
553.00,0.044
554.00,0.044
555.00,0.044
556.00,0.044
557.00,0.044
558.00,0.044
559.00,0.044
560.00,0.044
561.00,0.044
562.00,0.044
563.00,0.043
564.00,0.043
565.00,0.043
566.00,0.043
567.00,0.043
568.00,0.043
569.00,0.043
570.00,0.043
571.00,0.043
572.00,0.043
573.00,0.043
574.00,0.042
575.00,0.042
576.00,0.042
577.00,0.042
578.00,0.042
579.00,0.042
580.00,0.042
581.00,0.042
582.00,0.042
583.00,0.042
584.00,0.042
585.00,0.042
586.00,0.041
587.00,0.041
588.00,0.041
589.00,0.041
590.00,0.041
591.00,0.041
592.00,0.041
593.00,0.041
594.00,0.041
595.00,0.041
596.00,0.041
597.00,0.041
598.00,0.041
599.00,0.041
600.00,0.041
601.00,0.041
602.00,0.041
603.00,0.041
604.00,0.041
605.00,0.040
606.00,0.040
607.00,0.040
608.00,0.040
609.00,0.040
610.00,0.040
611.00,0.040
612.00,0.040
613.00,0.040
614.00,0.040
615.00,0.040
616.00,0.040
617.00,0.040
618.00,0.040
619.00,0.040
620.00,0.040
621.00,0.039
622.00,0.039
623.00,0.039
624.00,0.039
625.00,0.039
626.00,0.039
627.00,0.039
628.00,0.039
629.00,0.039
630.00,0.039
631.00,0.039
632.00,0.039
633.00,0.039
634.00,0.039
635.00,0.039
636.00,0.039
637.00,0.039
638.00,0.039
639.00,0.039
640.00,0.039
641.00,0.039
642.00,0.039
643.00,0.039
644.00,0.039
645.00,0.039
646.00,0.038
647.00,0.039
648.00,0.039
649.00,0.039
650.00,0.038
651.00,0.038
652.00,0.038
653.00,0.038
654.00,0.038
655.00,0.038
656.00,0.038
657.00,0.038
658.00,0.038
659.00,0.038
660.00,0.038
661.00,0.038
662.00,0.038
663.00,0.038
664.00,0.038
665.00,0.038
666.00,0.038
667.00,0.038
668.00,0.038
669.00,0.038
670.00,0.038
671.00,0.038
672.00,0.038
673.00,0.038
674.00,0.038
675.00,0.037
676.00,0.037
677.00,0.037
678.00,0.037
679.00,0.037
680.00,0.037
681.00,0.037
682.00,0.037
683.00,0.037
684.00,0.037
685.00,0.037
686.00,0.037
687.00,0.037
688.00,0.037
689.00,0.037
690.00,0.037
691.00,0.037
692.00,0.037
693.00,0.037
694.00,0.037
695.00,0.037
696.00,0.037
697.00,0.037
698.00,0.037
699.00,0.037
700.00,0.037
701.00,0.038
702.00,0.038
703.00,0.038
704.00,0.038
705.00,0.038
706.00,0.038
707.00,0.038
708.00,0.038
709.00,0.038
710.00,0.038
711.00,0.038
712.00,0.038
713.00,0.038
714.00,0.038
715.00,0.039
716.00,0.039
717.00,0.039
718.00,0.039
719.00,0.039
720.00,0.040
721.00,0.040
722.00,0.040
723.00,0.040
724.00,0.040
725.00,0.041
726.00,0.041
727.00,0.041
728.00,0.041
729.00,0.042
730.00,0.042
731.00,0.043
732.00,0.043
733.00,0.044
734.00,0.044
735.00,0.044
736.00,0.045
737.00,0.045
738.00,0.045
739.00,0.045
740.00,0.045
741.00,0.045
742.00,0.045
743.00,0.045
744.00,0.045
745.00,0.045
746.00,0.045
747.00,0.045
748.00,0.045
749.00,0.045
750.00,0.045
751.00,0.045
752.00,0.045
753.00,0.045
754.00,0.045
755.00,0.046
756.00,0.046
757.00,0.046
758.00,0.046
759.00,0.046
760.00,0.046
761.00,0.046
762.00,0.046
763.00,0.046
764.00,0.046
765.00,0.046
766.00,0.046
767.00,0.046
768.00,0.046
769.00,0.046
770.00,0.045
771.00,0.045
772.00,0.045
773.00,0.045
774.00,0.045
775.00,0.045
776.00,0.045
777.00,0.045
778.00,0.045
779.00,0.045
780.00,0.044
781.00,0.044
782.00,0.044
783.00,0.044
784.00,0.044
785.00,0.044
786.00,0.044
787.00,0.044
788.00,0.044
789.00,0.043
790.00,0.043
791.00,0.043
792.00,0.043
793.00,0.043
794.00,0.043
795.00,0.043
796.00,0.043
797.00,0.043
798.00,0.043
799.00,0.043
800.00,0.043
801.00,0.042
802.00,0.042
803.00,0.042
804.00,0.042
805.00,0.042
806.00,0.042
807.00,0.042
808.00,0.042
809.00,0.042
810.00,0.042
811.00,0.042
812.00,0.042
813.00,0.042
814.00,0.042
815.00,0.042
816.00,0.042
817.00,0.043
818.00,0.043
819.00,0.043
820.00,0.043
821.00,0.043
822.00,0.043
823.00,0.044
824.00,0.044
825.00,0.044
826.00,0.044
827.00,0.045
828.00,0.045
829.00,0.046
830.00,0.047
831.00,0.047
832.00,0.047
833.00,0.048
834.00,0.048
835.00,0.048
836.00,0.048
837.00,0.049
838.00,0.049
839.00,0.049
840.00,0.049
841.00,0.049
842.00,0.049
843.00,0.049
844.00,0.049
845.00,0.050
846.00,0.050
847.00,0.050
848.00,0.050
849.00,0.050
850.00,0.050
851.00,0.050
852.00,0.050
853.00,0.051
854.00,0.051
855.00,0.051
856.00,0.051
857.00,0.051
858.00,0.051
859.00,0.051
860.00,0.051
861.00,0.051
862.00,0.052
863.00,0.052
864.00,0.052
865.00,0.052
866.00,0.052
867.00,0.052
868.00,0.052
869.00,0.053
870.00,0.053
871.00,0.053
872.00,0.053
873.00,0.053
874.00,0.054
875.00,0.054
876.00,0.054
877.00,0.054
878.00,0.054
879.00,0.055
880.00,0.055
881.00,0.055
882.00,0.055
883.00,0.056
884.00,0.056
885.00,0.056
886.00,0.056
887.00,0.057
888.00,0.057
889.00,0.057
890.00,0.057
891.00,0.058
892.00,0.058
893.00,0.058
894.00,0.058
895.00,0.059
896.00,0.059
897.00,0.059
898.00,0.059
899.00,0.060
900.00,0.060
