"DieuDuCielRigorMortis50x - RawData"
"Wavelength nm.","Abs."
190.00,3.525
191.00,3.595
192.00,3.779
193.00,3.892
194.00,3.649
195.00,3.880
196.00,3.887
197.00,3.767
198.00,3.948
199.00,3.962
200.00,3.831
201.00,3.883
202.00,3.937
203.00,3.993
204.00,3.982
205.00,3.970
206.00,3.916
207.00,3.976
208.00,3.948
209.00,3.951
210.00,3.991
211.00,3.972
212.00,3.974
213.00,3.986
214.00,3.964
215.00,3.929
216.00,3.868
217.00,3.793
218.00,3.728
219.00,3.626
220.00,3.401
221.00,3.284
222.00,3.177
223.00,3.024
224.00,2.882
225.00,2.721
226.00,2.602
227.00,2.442
228.00,2.300
229.00,2.171
230.00,2.048
231.00,1.936
232.00,1.833
233.00,1.741
234.00,1.661
235.00,1.592
236.00,1.534
237.00,1.486
238.00,1.446
239.00,1.412
240.00,1.386
241.00,1.366
242.00,1.354
243.00,1.346
244.00,1.342
245.00,1.341
246.00,1.343
247.00,1.347
248.00,1.353
249.00,1.359
250.00,1.366
251.00,1.374
252.00,1.383
253.00,1.391
254.00,1.398
255.00,1.407
256.00,1.414
257.00,1.420
258.00,1.424
259.00,1.425
260.00,1.425
261.00,1.426
262.00,1.427
263.00,1.428
264.00,1.428
265.00,1.426
266.00,1.424
267.00,1.421
268.00,1.417
269.00,1.410
270.00,1.403
271.00,1.393
272.00,1.382
273.00,1.370
274.00,1.358
275.00,1.342
276.00,1.327
277.00,1.308
278.00,1.289
279.00,1.269
280.00,1.249
281.00,1.229
282.00,1.207
283.00,1.183
284.00,1.158
285.00,1.132
286.00,1.107
287.00,1.083
288.00,1.058
289.00,1.034
290.00,1.006
291.00,0.979
292.00,0.954
293.00,0.931
294.00,0.912
295.00,0.893
296.00,0.878
297.00,0.862
298.00,0.848
299.00,0.834
300.00,0.821
301.00,0.809
302.00,0.797
303.00,0.786
304.00,0.775
305.00,0.763
306.00,0.749
307.00,0.738
308.00,0.727
309.00,0.716
310.00,0.705
311.00,0.694
312.00,0.684
313.00,0.673
314.00,0.663
315.00,0.654
316.00,0.643
317.00,0.633
318.00,0.623
319.00,0.614
320.00,0.603
321.00,0.593
322.00,0.582
323.00,0.572
324.00,0.562
325.00,0.551
326.00,0.541
327.00,0.531
328.00,0.520
329.00,0.510
330.00,0.499
331.00,0.489
332.00,0.479
333.00,0.468
334.00,0.459
335.00,0.449
336.00,0.439
337.00,0.430
338.00,0.421
339.00,0.411
340.00,0.403
341.00,0.392
342.00,0.383
343.00,0.374
344.00,0.366
345.00,0.358
346.00,0.350
347.00,0.343
348.00,0.335
349.00,0.328
350.00,0.321
351.00,0.314
352.00,0.307
353.00,0.301
354.00,0.295
355.00,0.289
356.00,0.283
357.00,0.277
358.00,0.272
359.00,0.267
360.00,0.262
361.00,0.257
362.00,0.252
363.00,0.248
364.00,0.244
365.00,0.240
366.00,0.236
367.00,0.232
368.00,0.228
369.00,0.224
370.00,0.221
371.00,0.217
372.00,0.214
373.00,0.211
374.00,0.208
375.00,0.205
376.00,0.202
377.00,0.199
378.00,0.196
379.00,0.193
380.00,0.190
381.00,0.187
382.00,0.185
383.00,0.183
384.00,0.180
385.00,0.178
386.00,0.175
387.00,0.173
388.00,0.171
389.00,0.169
390.00,0.167
391.00,0.165
392.00,0.163
393.00,0.161
394.00,0.159
395.00,0.158
396.00,0.156
397.00,0.154
398.00,0.153
399.00,0.151
400.00,0.150
401.00,0.148
402.00,0.147
403.00,0.145
404.00,0.144
405.00,0.143
406.00,0.141
407.00,0.140
408.00,0.139
409.00,0.137
410.00,0.136
411.00,0.135
412.00,0.134
413.00,0.133
414.00,0.132
415.00,0.131
416.00,0.130
417.00,0.129
418.00,0.128
419.00,0.127
420.00,0.126
421.00,0.125
422.00,0.124
423.00,0.123
424.00,0.122
425.00,0.121
426.00,0.120
427.00,0.119
428.00,0.118
429.00,0.118
430.00,0.117
431.00,0.116
432.00,0.115
433.00,0.114
434.00,0.113
435.00,0.113
436.00,0.112
437.00,0.111
438.00,0.111
439.00,0.110
440.00,0.109
441.00,0.108
442.00,0.108
443.00,0.107
444.00,0.106
445.00,0.106
446.00,0.105
447.00,0.104
448.00,0.104
449.00,0.103
450.00,0.103
451.00,0.102
452.00,0.101
453.00,0.101
454.00,0.100
455.00,0.100
456.00,0.099
457.00,0.099
458.00,0.098
459.00,0.097
460.00,0.097
461.00,0.096
462.00,0.096
463.00,0.095
464.00,0.095
465.00,0.094
466.00,0.094
467.00,0.093
468.00,0.093
469.00,0.092
470.00,0.092
471.00,0.091
472.00,0.091
473.00,0.090
474.00,0.090
475.00,0.089
476.00,0.089
477.00,0.089
478.00,0.088
479.00,0.088
480.00,0.087
481.00,0.087
482.00,0.086
483.00,0.086
484.00,0.086
485.00,0.085
486.00,0.085
487.00,0.084
488.00,0.084
489.00,0.084
490.00,0.083
491.00,0.083
492.00,0.083
493.00,0.082
494.00,0.082
495.00,0.081
496.00,0.081
497.00,0.081
498.00,0.080
499.00,0.080
500.00,0.080
501.00,0.079
502.00,0.079
503.00,0.079
504.00,0.078
505.00,0.078
506.00,0.078
507.00,0.077
508.00,0.077
509.00,0.077
510.00,0.077
511.00,0.076
512.00,0.076
513.00,0.076
514.00,0.075
515.00,0.075
516.00,0.075
517.00,0.075
518.00,0.074
519.00,0.074
520.00,0.074
521.00,0.074
522.00,0.073
523.00,0.073
524.00,0.073
525.00,0.072
526.00,0.072
527.00,0.072
528.00,0.072
529.00,0.072
530.00,0.071
531.00,0.071
532.00,0.071
533.00,0.071
534.00,0.070
535.00,0.070
536.00,0.070
537.00,0.070
538.00,0.069
539.00,0.069
540.00,0.069
541.00,0.069
542.00,0.069
543.00,0.068
544.00,0.068
545.00,0.068
546.00,0.068
547.00,0.068
548.00,0.067
549.00,0.067
550.00,0.067
551.00,0.067
552.00,0.067
553.00,0.067
554.00,0.066
555.00,0.066
556.00,0.066
557.00,0.066
558.00,0.066
559.00,0.066
560.00,0.066
561.00,0.065
562.00,0.065
563.00,0.065
564.00,0.065
565.00,0.065
566.00,0.065
567.00,0.065
568.00,0.064
569.00,0.064
570.00,0.064
571.00,0.064
572.00,0.064
573.00,0.064
574.00,0.064
575.00,0.064
576.00,0.063
577.00,0.063
578.00,0.063
579.00,0.063
580.00,0.063
581.00,0.063
582.00,0.063
583.00,0.063
584.00,0.063
585.00,0.063
586.00,0.062
587.00,0.062
588.00,0.062
589.00,0.062
590.00,0.062
591.00,0.062
592.00,0.062
593.00,0.062
594.00,0.062
595.00,0.062
596.00,0.062
597.00,0.062
598.00,0.062
599.00,0.062
600.00,0.061
601.00,0.061
602.00,0.061
603.00,0.061
604.00,0.061
605.00,0.061
606.00,0.061
607.00,0.061
608.00,0.061
609.00,0.061
610.00,0.061
611.00,0.061
612.00,0.061
613.00,0.061
614.00,0.060
615.00,0.060
616.00,0.060
617.00,0.060
618.00,0.060
619.00,0.060
620.00,0.060
621.00,0.060
622.00,0.060
623.00,0.060
624.00,0.060
625.00,0.060
626.00,0.060
627.00,0.060
628.00,0.060
629.00,0.059
630.00,0.059
631.00,0.059
632.00,0.059
633.00,0.059
634.00,0.059
635.00,0.059
636.00,0.059
637.00,0.059
638.00,0.059
639.00,0.059
640.00,0.059
641.00,0.059
642.00,0.059
643.00,0.059
644.00,0.059
645.00,0.058
646.00,0.058
647.00,0.058
648.00,0.058
649.00,0.058
650.00,0.058
651.00,0.058
652.00,0.058
653.00,0.058
654.00,0.058
655.00,0.058
656.00,0.058
657.00,0.058
658.00,0.058
659.00,0.058
660.00,0.058
661.00,0.058
662.00,0.058
663.00,0.058
664.00,0.058
665.00,0.058
666.00,0.058
667.00,0.058
668.00,0.058
669.00,0.058
670.00,0.058
671.00,0.058
672.00,0.058
673.00,0.057
674.00,0.057
675.00,0.057
676.00,0.057
677.00,0.057
678.00,0.057
679.00,0.057
680.00,0.057
681.00,0.057
682.00,0.057
683.00,0.057
684.00,0.057
685.00,0.057
686.00,0.057
687.00,0.057
688.00,0.057
689.00,0.057
690.00,0.057
691.00,0.057
692.00,0.057
693.00,0.057
694.00,0.057
695.00,0.057
696.00,0.057
697.00,0.057
698.00,0.057
699.00,0.057
700.00,0.057
701.00,0.057
702.00,0.057
703.00,0.057
704.00,0.057
705.00,0.057
706.00,0.057
707.00,0.057
708.00,0.057
709.00,0.057
710.00,0.058
711.00,0.058
712.00,0.058
713.00,0.058
714.00,0.058
715.00,0.058
716.00,0.058
717.00,0.059
718.00,0.059
719.00,0.059
720.00,0.059
721.00,0.059
722.00,0.059
723.00,0.060
724.00,0.060
725.00,0.060
726.00,0.060
727.00,0.061
728.00,0.061
729.00,0.061
730.00,0.062
731.00,0.062
732.00,0.063
733.00,0.063
734.00,0.064
735.00,0.064
736.00,0.064
737.00,0.065
738.00,0.065
739.00,0.065
740.00,0.065
741.00,0.065
742.00,0.065
743.00,0.065
744.00,0.065
745.00,0.065
746.00,0.065
747.00,0.065
748.00,0.065
749.00,0.065
750.00,0.065
751.00,0.065
752.00,0.065
753.00,0.065
754.00,0.065
755.00,0.065
756.00,0.065
757.00,0.065
758.00,0.065
759.00,0.065
760.00,0.065
761.00,0.065
762.00,0.065
763.00,0.065
764.00,0.065
765.00,0.065
766.00,0.064
767.00,0.064
768.00,0.064
769.00,0.064
770.00,0.064
771.00,0.064
772.00,0.064
773.00,0.064
774.00,0.064
775.00,0.064
776.00,0.064
777.00,0.064
778.00,0.064
779.00,0.063
780.00,0.063
781.00,0.063
782.00,0.063
783.00,0.063
784.00,0.063
785.00,0.063
786.00,0.063
787.00,0.063
788.00,0.062
789.00,0.062
790.00,0.062
791.00,0.062
792.00,0.062
793.00,0.062
794.00,0.062
795.00,0.062
796.00,0.061
797.00,0.061
798.00,0.061
799.00,0.061
800.00,0.061
801.00,0.061
802.00,0.061
803.00,0.061
804.00,0.061
805.00,0.061
806.00,0.061
807.00,0.061
808.00,0.061
809.00,0.061
810.00,0.061
811.00,0.061
812.00,0.061
813.00,0.061
814.00,0.061
815.00,0.061
816.00,0.061
817.00,0.061
818.00,0.061
819.00,0.061
820.00,0.061
821.00,0.061
822.00,0.062
823.00,0.062
824.00,0.062
825.00,0.063
826.00,0.063
827.00,0.063
828.00,0.064
829.00,0.065
830.00,0.065
831.00,0.066
832.00,0.066
833.00,0.067
834.00,0.067
835.00,0.067
836.00,0.067
837.00,0.067
838.00,0.068
839.00,0.068
840.00,0.068
841.00,0.068
842.00,0.068
843.00,0.068
844.00,0.068
845.00,0.068
846.00,0.068
847.00,0.068
848.00,0.069
849.00,0.069
850.00,0.069
851.00,0.069
852.00,0.069
853.00,0.069
854.00,0.069
855.00,0.069
856.00,0.069
857.00,0.069
858.00,0.070
859.00,0.070
860.00,0.070
861.00,0.070
862.00,0.070
863.00,0.070
864.00,0.070
865.00,0.070
866.00,0.070
867.00,0.070
868.00,0.070
869.00,0.071
870.00,0.071
871.00,0.071
872.00,0.071
873.00,0.071
874.00,0.071
875.00,0.072
876.00,0.072
877.00,0.072
878.00,0.072
879.00,0.072
880.00,0.072
881.00,0.073
882.00,0.073
883.00,0.073
884.00,0.073
885.00,0.074
886.00,0.074
887.00,0.074
888.00,0.074
889.00,0.075
890.00,0.075
891.00,0.075
892.00,0.075
893.00,0.075
894.00,0.076
895.00,0.076
896.00,0.076
897.00,0.076
898.00,0.077
899.00,0.077
900.00,0.077
