"DieuDuCielRoséeDHibiscus50x - RawData"
"Wavelength nm.","Abs."
190.00,3.922
191.00,3.433
192.00,3.399
193.00,3.625
194.00,3.860
195.00,3.777
196.00,3.808
197.00,3.817
198.00,3.794
199.00,3.817
200.00,3.871
201.00,3.864
202.00,3.829
203.00,3.875
204.00,3.979
205.00,3.833
206.00,3.836
207.00,3.933
208.00,3.776
209.00,3.652
210.00,3.771
211.00,3.686
212.00,3.534
213.00,3.347
214.00,3.256
215.00,3.054
216.00,2.970
217.00,2.817
218.00,2.703
219.00,2.576
220.00,2.448
221.00,2.329
222.00,2.212
223.00,2.094
224.00,1.975
225.00,1.859
226.00,1.738
227.00,1.617
228.00,1.499
229.00,1.392
230.00,1.292
231.00,1.203
232.00,1.123
233.00,1.051
234.00,0.990
235.00,0.936
236.00,0.890
237.00,0.852
238.00,0.820
239.00,0.795
240.00,0.774
241.00,0.758
242.00,0.747
243.00,0.739
244.00,0.734
245.00,0.731
246.00,0.729
247.00,0.729
248.00,0.730
249.00,0.732
250.00,0.735
251.00,0.738
252.00,0.741
253.00,0.745
254.00,0.749
255.00,0.753
256.00,0.757
257.00,0.761
258.00,0.764
259.00,0.765
260.00,0.767
261.00,0.769
262.00,0.771
263.00,0.774
264.00,0.777
265.00,0.778
266.00,0.780
267.00,0.781
268.00,0.780
269.00,0.779
270.00,0.776
271.00,0.773
272.00,0.768
273.00,0.763
274.00,0.757
275.00,0.749
276.00,0.741
277.00,0.731
278.00,0.720
279.00,0.708
280.00,0.696
281.00,0.683
282.00,0.668
283.00,0.651
284.00,0.634
285.00,0.615
286.00,0.597
287.00,0.580
288.00,0.563
289.00,0.545
290.00,0.524
291.00,0.504
292.00,0.486
293.00,0.469
294.00,0.455
295.00,0.442
296.00,0.431
297.00,0.421
298.00,0.411
299.00,0.401
300.00,0.393
301.00,0.386
302.00,0.379
303.00,0.373
304.00,0.368
305.00,0.363
306.00,0.359
307.00,0.354
308.00,0.351
309.00,0.348
310.00,0.345
311.00,0.343
312.00,0.340
313.00,0.338
314.00,0.336
315.00,0.334
316.00,0.332
317.00,0.330
318.00,0.328
319.00,0.326
320.00,0.323
321.00,0.320
322.00,0.318
323.00,0.315
324.00,0.312
325.00,0.308
326.00,0.304
327.00,0.300
328.00,0.296
329.00,0.291
330.00,0.286
331.00,0.281
332.00,0.275
333.00,0.270
334.00,0.264
335.00,0.258
336.00,0.253
337.00,0.247
338.00,0.241
339.00,0.235
340.00,0.230
341.00,0.223
342.00,0.216
343.00,0.210
344.00,0.205
345.00,0.199
346.00,0.193
347.00,0.188
348.00,0.182
349.00,0.177
350.00,0.172
351.00,0.167
352.00,0.162
353.00,0.157
354.00,0.153
355.00,0.148
356.00,0.144
357.00,0.140
358.00,0.136
359.00,0.132
360.00,0.128
361.00,0.125
362.00,0.122
363.00,0.119
364.00,0.116
365.00,0.113
366.00,0.111
367.00,0.108
368.00,0.106
369.00,0.103
370.00,0.101
371.00,0.099
372.00,0.097
373.00,0.095
374.00,0.093
375.00,0.091
376.00,0.089
377.00,0.088
378.00,0.086
379.00,0.085
380.00,0.083
381.00,0.082
382.00,0.080
383.00,0.079
384.00,0.078
385.00,0.076
386.00,0.075
387.00,0.074
388.00,0.073
389.00,0.072
390.00,0.071
391.00,0.070
392.00,0.069
393.00,0.068
394.00,0.068
395.00,0.067
396.00,0.066
397.00,0.066
398.00,0.065
399.00,0.064
400.00,0.064
401.00,0.063
402.00,0.062
403.00,0.062
404.00,0.061
405.00,0.061
406.00,0.061
407.00,0.060
408.00,0.059
409.00,0.059
410.00,0.059
411.00,0.058
412.00,0.058
413.00,0.058
414.00,0.057
415.00,0.057
416.00,0.056
417.00,0.056
418.00,0.056
419.00,0.056
420.00,0.056
421.00,0.055
422.00,0.055
423.00,0.055
424.00,0.055
425.00,0.054
426.00,0.054
427.00,0.054
428.00,0.054
429.00,0.054
430.00,0.053
431.00,0.053
432.00,0.053
433.00,0.053
434.00,0.053
435.00,0.052
436.00,0.052
437.00,0.052
438.00,0.052
439.00,0.052
440.00,0.052
441.00,0.052
442.00,0.051
443.00,0.051
444.00,0.051
445.00,0.051
446.00,0.051
447.00,0.051
448.00,0.051
449.00,0.050
450.00,0.050
451.00,0.050
452.00,0.050
453.00,0.050
454.00,0.050
455.00,0.050
456.00,0.050
457.00,0.050
458.00,0.050
459.00,0.049
460.00,0.049
461.00,0.049
462.00,0.049
463.00,0.049
464.00,0.049
465.00,0.049
466.00,0.049
467.00,0.049
468.00,0.049
469.00,0.049
470.00,0.048
471.00,0.048
472.00,0.048
473.00,0.048
474.00,0.048
475.00,0.048
476.00,0.048
477.00,0.048
478.00,0.048
479.00,0.048
480.00,0.048
481.00,0.048
482.00,0.048
483.00,0.047
484.00,0.047
485.00,0.047
486.00,0.047
487.00,0.047
488.00,0.047
489.00,0.047
490.00,0.047
491.00,0.047
492.00,0.047
493.00,0.047
494.00,0.047
495.00,0.047
496.00,0.047
497.00,0.047
498.00,0.047
499.00,0.047
500.00,0.046
501.00,0.046
502.00,0.046
503.00,0.046
504.00,0.046
505.00,0.046
506.00,0.046
507.00,0.046
508.00,0.046
509.00,0.046
510.00,0.046
511.00,0.046
512.00,0.045
513.00,0.045
514.00,0.045
515.00,0.045
516.00,0.045
517.00,0.045
518.00,0.045
519.00,0.045
520.00,0.045
521.00,0.045
522.00,0.044
523.00,0.044
524.00,0.044
525.00,0.044
526.00,0.044
527.00,0.044
528.00,0.044
529.00,0.044
530.00,0.044
531.00,0.043
532.00,0.043
533.00,0.043
534.00,0.043
535.00,0.043
536.00,0.043
537.00,0.043
538.00,0.043
539.00,0.043
540.00,0.043
541.00,0.043
542.00,0.042
543.00,0.042
544.00,0.042
545.00,0.042
546.00,0.042
547.00,0.042
548.00,0.042
549.00,0.042
550.00,0.042
551.00,0.042
552.00,0.042
553.00,0.042
554.00,0.042
555.00,0.041
556.00,0.041
557.00,0.041
558.00,0.041
559.00,0.041
560.00,0.041
561.00,0.041
562.00,0.041
563.00,0.041
564.00,0.041
565.00,0.041
566.00,0.041
567.00,0.041
568.00,0.041
569.00,0.041
570.00,0.040
571.00,0.040
572.00,0.040
573.00,0.040
574.00,0.040
575.00,0.040
576.00,0.040
577.00,0.040
578.00,0.040
579.00,0.040
580.00,0.040
581.00,0.040
582.00,0.040
583.00,0.040
584.00,0.040
585.00,0.040
586.00,0.040
587.00,0.039
588.00,0.039
589.00,0.039
590.00,0.039
591.00,0.039
592.00,0.039
593.00,0.039
594.00,0.039
595.00,0.039
596.00,0.039
597.00,0.039
598.00,0.039
599.00,0.039
600.00,0.039
601.00,0.039
602.00,0.039
603.00,0.039
604.00,0.039
605.00,0.039
606.00,0.039
607.00,0.039
608.00,0.039
609.00,0.039
610.00,0.039
611.00,0.039
612.00,0.039
613.00,0.039
614.00,0.039
615.00,0.039
616.00,0.039
617.00,0.039
618.00,0.039
619.00,0.039
620.00,0.039
621.00,0.039
622.00,0.038
623.00,0.038
624.00,0.038
625.00,0.038
626.00,0.038
627.00,0.038
628.00,0.038
629.00,0.038
630.00,0.038
631.00,0.038
632.00,0.038
633.00,0.038
634.00,0.038
635.00,0.038
636.00,0.038
637.00,0.038
638.00,0.038
639.00,0.038
640.00,0.038
641.00,0.038
642.00,0.038
643.00,0.038
644.00,0.038
645.00,0.038
646.00,0.038
647.00,0.038
648.00,0.038
649.00,0.038
650.00,0.038
651.00,0.038
652.00,0.038
653.00,0.038
654.00,0.038
655.00,0.038
656.00,0.038
657.00,0.038
658.00,0.038
659.00,0.038
660.00,0.038
661.00,0.038
662.00,0.038
663.00,0.038
664.00,0.038
665.00,0.038
666.00,0.038
667.00,0.038
668.00,0.038
669.00,0.038
670.00,0.038
671.00,0.038
672.00,0.038
673.00,0.038
674.00,0.038
675.00,0.038
676.00,0.038
677.00,0.037
678.00,0.037
679.00,0.038
680.00,0.038
681.00,0.038
682.00,0.038
683.00,0.038
684.00,0.037
685.00,0.037
686.00,0.038
687.00,0.037
688.00,0.037
689.00,0.038
690.00,0.038
691.00,0.038
692.00,0.038
693.00,0.038
694.00,0.038
695.00,0.038
696.00,0.038
697.00,0.038
698.00,0.038
699.00,0.038
700.00,0.038
701.00,0.038
702.00,0.038
703.00,0.038
704.00,0.038
705.00,0.038
706.00,0.038
707.00,0.038
708.00,0.038
709.00,0.038
710.00,0.038
711.00,0.039
712.00,0.039
713.00,0.039
714.00,0.039
715.00,0.039
716.00,0.039
717.00,0.039
718.00,0.040
719.00,0.040
720.00,0.040
721.00,0.040
722.00,0.041
723.00,0.041
724.00,0.041
725.00,0.041
726.00,0.042
727.00,0.042
728.00,0.042
729.00,0.043
730.00,0.043
731.00,0.044
732.00,0.044
733.00,0.045
734.00,0.045
735.00,0.045
736.00,0.046
737.00,0.046
738.00,0.046
739.00,0.046
740.00,0.046
741.00,0.046
742.00,0.046
743.00,0.046
744.00,0.046
745.00,0.046
746.00,0.046
747.00,0.046
748.00,0.046
749.00,0.046
750.00,0.046
751.00,0.046
752.00,0.046
753.00,0.046
754.00,0.046
755.00,0.046
756.00,0.046
757.00,0.046
758.00,0.046
759.00,0.046
760.00,0.047
761.00,0.046
762.00,0.046
763.00,0.046
764.00,0.046
765.00,0.046
766.00,0.046
767.00,0.046
768.00,0.046
769.00,0.046
770.00,0.046
771.00,0.046
772.00,0.046
773.00,0.046
774.00,0.046
775.00,0.046
776.00,0.045
777.00,0.045
778.00,0.045
779.00,0.045
780.00,0.045
781.00,0.045
782.00,0.045
783.00,0.045
784.00,0.045
785.00,0.045
786.00,0.045
787.00,0.044
788.00,0.044
789.00,0.044
790.00,0.044
791.00,0.044
792.00,0.044
793.00,0.044
794.00,0.044
795.00,0.044
796.00,0.044
797.00,0.043
798.00,0.043
799.00,0.043
800.00,0.043
801.00,0.043
802.00,0.043
803.00,0.043
804.00,0.043
805.00,0.043
806.00,0.043
807.00,0.043
808.00,0.043
809.00,0.043
810.00,0.043
811.00,0.043
812.00,0.043
813.00,0.043
814.00,0.043
815.00,0.043
816.00,0.043
817.00,0.043
818.00,0.043
819.00,0.043
820.00,0.043
821.00,0.044
822.00,0.044
823.00,0.044
824.00,0.045
825.00,0.045
826.00,0.045
827.00,0.046
828.00,0.046
829.00,0.047
830.00,0.048
831.00,0.048
832.00,0.049
833.00,0.049
834.00,0.049
835.00,0.050
836.00,0.050
837.00,0.050
838.00,0.050
839.00,0.050
840.00,0.050
841.00,0.051
842.00,0.051
843.00,0.051
844.00,0.051
845.00,0.051
846.00,0.051
847.00,0.051
848.00,0.051
849.00,0.051
850.00,0.052
851.00,0.052
852.00,0.052
853.00,0.052
854.00,0.052
855.00,0.052
856.00,0.052
857.00,0.052
858.00,0.053
859.00,0.053
860.00,0.053
861.00,0.053
862.00,0.053
863.00,0.053
864.00,0.053
865.00,0.053
866.00,0.053
867.00,0.054
868.00,0.054
869.00,0.054
870.00,0.054
871.00,0.054
872.00,0.054
873.00,0.055
874.00,0.055
875.00,0.055
876.00,0.055
877.00,0.055
878.00,0.056
879.00,0.056
880.00,0.056
881.00,0.056
882.00,0.057
883.00,0.057
884.00,0.057
885.00,0.057
886.00,0.058
887.00,0.058
888.00,0.058
889.00,0.058
890.00,0.059
891.00,0.059
892.00,0.059
893.00,0.059
894.00,0.060
895.00,0.060
896.00,0.060
897.00,0.060
898.00,0.061
899.00,0.061
900.00,0.061
