"DomaineBerthiaumeLEauClaire50x - RawData"
"Wavelength nm.","Abs."
190.00,3.324
191.00,3.510
192.00,3.121
193.00,3.424
194.00,3.681
195.00,3.515
196.00,3.706
197.00,3.800
198.00,3.573
199.00,3.785
200.00,3.664
201.00,3.663
202.00,3.744
203.00,3.522
204.00,3.707
205.00,3.532
206.00,3.485
207.00,3.379
208.00,3.382
209.00,3.267
210.00,3.136
211.00,2.995
212.00,2.884
213.00,2.784
214.00,2.681
215.00,2.555
216.00,2.442
217.00,2.331
218.00,2.221
219.00,2.117
220.00,2.006
221.00,1.911
222.00,1.818
223.00,1.731
224.00,1.642
225.00,1.558
226.00,1.475
227.00,1.393
228.00,1.314
229.00,1.243
230.00,1.176
231.00,1.114
232.00,1.059
233.00,1.011
234.00,0.969
235.00,0.933
236.00,0.903
237.00,0.878
238.00,0.856
239.00,0.839
240.00,0.825
241.00,0.815
242.00,0.807
243.00,0.802
244.00,0.798
245.00,0.796
246.00,0.795
247.00,0.795
248.00,0.796
249.00,0.797
250.00,0.799
251.00,0.802
252.00,0.805
253.00,0.808
254.00,0.811
255.00,0.814
256.00,0.817
257.00,0.819
258.00,0.820
259.00,0.820
260.00,0.819
261.00,0.818
262.00,0.818
263.00,0.817
264.00,0.817
265.00,0.815
266.00,0.812
267.00,0.810
268.00,0.805
269.00,0.800
270.00,0.794
271.00,0.787
272.00,0.780
273.00,0.772
274.00,0.763
275.00,0.753
276.00,0.742
277.00,0.731
278.00,0.719
279.00,0.705
280.00,0.692
281.00,0.678
282.00,0.663
283.00,0.647
284.00,0.630
285.00,0.613
286.00,0.596
287.00,0.580
288.00,0.563
289.00,0.546
290.00,0.528
291.00,0.510
292.00,0.494
293.00,0.480
294.00,0.468
295.00,0.457
296.00,0.447
297.00,0.439
298.00,0.430
299.00,0.423
300.00,0.416
301.00,0.410
302.00,0.404
303.00,0.399
304.00,0.394
305.00,0.389
306.00,0.385
307.00,0.380
308.00,0.376
309.00,0.373
310.00,0.369
311.00,0.365
312.00,0.361
313.00,0.358
314.00,0.355
315.00,0.351
316.00,0.347
317.00,0.344
318.00,0.340
319.00,0.336
320.00,0.332
321.00,0.327
322.00,0.323
323.00,0.318
324.00,0.314
325.00,0.309
326.00,0.303
327.00,0.299
328.00,0.293
329.00,0.288
330.00,0.282
331.00,0.275
332.00,0.270
333.00,0.264
334.00,0.258
335.00,0.251
336.00,0.246
337.00,0.240
338.00,0.234
339.00,0.229
340.00,0.223
341.00,0.216
342.00,0.210
343.00,0.204
344.00,0.200
345.00,0.194
346.00,0.189
347.00,0.184
348.00,0.179
349.00,0.175
350.00,0.170
351.00,0.165
352.00,0.161
353.00,0.157
354.00,0.153
355.00,0.149
356.00,0.146
357.00,0.142
358.00,0.139
359.00,0.135
360.00,0.132
361.00,0.129
362.00,0.127
363.00,0.124
364.00,0.121
365.00,0.119
366.00,0.117
367.00,0.114
368.00,0.112
369.00,0.110
370.00,0.108
371.00,0.106
372.00,0.105
373.00,0.103
374.00,0.101
375.00,0.099
376.00,0.098
377.00,0.096
378.00,0.095
379.00,0.093
380.00,0.092
381.00,0.091
382.00,0.089
383.00,0.088
384.00,0.087
385.00,0.086
386.00,0.085
387.00,0.084
388.00,0.083
389.00,0.082
390.00,0.081
391.00,0.080
392.00,0.079
393.00,0.078
394.00,0.077
395.00,0.077
396.00,0.076
397.00,0.075
398.00,0.074
399.00,0.074
400.00,0.073
401.00,0.072
402.00,0.072
403.00,0.071
404.00,0.071
405.00,0.070
406.00,0.070
407.00,0.069
408.00,0.069
409.00,0.068
410.00,0.068
411.00,0.067
412.00,0.067
413.00,0.066
414.00,0.066
415.00,0.066
416.00,0.065
417.00,0.065
418.00,0.064
419.00,0.064
420.00,0.064
421.00,0.063
422.00,0.063
423.00,0.063
424.00,0.062
425.00,0.062
426.00,0.062
427.00,0.061
428.00,0.061
429.00,0.061
430.00,0.060
431.00,0.060
432.00,0.060
433.00,0.060
434.00,0.059
435.00,0.059
436.00,0.059
437.00,0.058
438.00,0.058
439.00,0.058
440.00,0.058
441.00,0.057
442.00,0.057
443.00,0.057
444.00,0.057
445.00,0.057
446.00,0.056
447.00,0.056
448.00,0.056
449.00,0.056
450.00,0.056
451.00,0.055
452.00,0.055
453.00,0.055
454.00,0.055
455.00,0.055
456.00,0.054
457.00,0.054
458.00,0.054
459.00,0.054
460.00,0.054
461.00,0.054
462.00,0.053
463.00,0.053
464.00,0.053
465.00,0.053
466.00,0.053
467.00,0.053
468.00,0.052
469.00,0.052
470.00,0.052
471.00,0.052
472.00,0.052
473.00,0.052
474.00,0.052
475.00,0.051
476.00,0.051
477.00,0.051
478.00,0.051
479.00,0.051
480.00,0.051
481.00,0.051
482.00,0.050
483.00,0.050
484.00,0.050
485.00,0.050
486.00,0.050
487.00,0.050
488.00,0.050
489.00,0.050
490.00,0.049
491.00,0.049
492.00,0.049
493.00,0.049
494.00,0.049
495.00,0.049
496.00,0.049
497.00,0.049
498.00,0.048
499.00,0.048
500.00,0.048
501.00,0.048
502.00,0.048
503.00,0.048
504.00,0.048
505.00,0.048
506.00,0.048
507.00,0.048
508.00,0.047
509.00,0.047
510.00,0.047
511.00,0.047
512.00,0.047
513.00,0.047
514.00,0.047
515.00,0.047
516.00,0.047
517.00,0.047
518.00,0.046
519.00,0.046
520.00,0.046
521.00,0.046
522.00,0.046
523.00,0.046
524.00,0.046
525.00,0.046
526.00,0.046
527.00,0.046
528.00,0.046
529.00,0.045
530.00,0.045
531.00,0.045
532.00,0.045
533.00,0.045
534.00,0.045
535.00,0.045
536.00,0.045
537.00,0.045
538.00,0.045
539.00,0.045
540.00,0.045
541.00,0.045
542.00,0.045
543.00,0.044
544.00,0.044
545.00,0.044
546.00,0.044
547.00,0.044
548.00,0.044
549.00,0.044
550.00,0.044
551.00,0.044
552.00,0.044
553.00,0.044
554.00,0.044
555.00,0.044
556.00,0.044
557.00,0.044
558.00,0.044
559.00,0.044
560.00,0.043
561.00,0.043
562.00,0.043
563.00,0.043
564.00,0.043
565.00,0.043
566.00,0.043
567.00,0.043
568.00,0.043
569.00,0.043
570.00,0.043
571.00,0.043
572.00,0.043
573.00,0.043
574.00,0.043
575.00,0.043
576.00,0.043
577.00,0.043
578.00,0.043
579.00,0.043
580.00,0.043
581.00,0.043
582.00,0.043
583.00,0.042
584.00,0.042
585.00,0.042
586.00,0.042
587.00,0.042
588.00,0.042
589.00,0.042
590.00,0.042
591.00,0.042
592.00,0.042
593.00,0.042
594.00,0.042
595.00,0.042
596.00,0.042
597.00,0.042
598.00,0.042
599.00,0.042
600.00,0.042
601.00,0.042
602.00,0.042
603.00,0.042
604.00,0.042
605.00,0.042
606.00,0.042
607.00,0.042
608.00,0.042
609.00,0.042
610.00,0.042
611.00,0.042
612.00,0.042
613.00,0.042
614.00,0.042
615.00,0.042
616.00,0.042
617.00,0.042
618.00,0.042
619.00,0.042
620.00,0.042
621.00,0.042
622.00,0.042
623.00,0.042
624.00,0.042
625.00,0.042
626.00,0.042
627.00,0.042
628.00,0.042
629.00,0.042
630.00,0.041
631.00,0.041
632.00,0.041
633.00,0.041
634.00,0.041
635.00,0.041
636.00,0.041
637.00,0.041
638.00,0.041
639.00,0.041
640.00,0.041
641.00,0.041
642.00,0.041
643.00,0.041
644.00,0.041
645.00,0.041
646.00,0.041
647.00,0.041
648.00,0.041
649.00,0.041
650.00,0.041
651.00,0.041
652.00,0.041
653.00,0.041
654.00,0.041
655.00,0.041
656.00,0.041
657.00,0.041
658.00,0.041
659.00,0.041
660.00,0.041
661.00,0.041
662.00,0.041
663.00,0.041
664.00,0.041
665.00,0.041
666.00,0.041
667.00,0.041
668.00,0.041
669.00,0.041
670.00,0.041
671.00,0.041
672.00,0.041
673.00,0.041
674.00,0.041
675.00,0.041
676.00,0.041
677.00,0.041
678.00,0.041
679.00,0.041
680.00,0.041
681.00,0.041
682.00,0.041
683.00,0.041
684.00,0.041
685.00,0.041
686.00,0.041
687.00,0.041
688.00,0.041
689.00,0.041
690.00,0.041
691.00,0.041
692.00,0.041
693.00,0.041
694.00,0.041
695.00,0.041
696.00,0.041
697.00,0.041
698.00,0.041
699.00,0.041
700.00,0.041
701.00,0.041
702.00,0.041
703.00,0.041
704.00,0.041
705.00,0.041
706.00,0.041
707.00,0.041
708.00,0.041
709.00,0.041
710.00,0.041
711.00,0.042
712.00,0.042
713.00,0.042
714.00,0.042
715.00,0.042
716.00,0.042
717.00,0.042
718.00,0.043
719.00,0.043
720.00,0.043
721.00,0.043
722.00,0.044
723.00,0.044
724.00,0.044
725.00,0.044
726.00,0.044
727.00,0.045
728.00,0.045
729.00,0.046
730.00,0.046
731.00,0.047
732.00,0.047
733.00,0.048
734.00,0.048
735.00,0.048
736.00,0.049
737.00,0.049
738.00,0.049
739.00,0.049
740.00,0.049
741.00,0.049
742.00,0.049
743.00,0.049
744.00,0.049
745.00,0.049
746.00,0.049
747.00,0.049
748.00,0.049
749.00,0.049
750.00,0.049
751.00,0.049
752.00,0.049
753.00,0.049
754.00,0.049
755.00,0.049
756.00,0.049
757.00,0.049
758.00,0.049
759.00,0.049
760.00,0.050
761.00,0.049
762.00,0.049
763.00,0.049
764.00,0.049
765.00,0.049
766.00,0.049
767.00,0.049
768.00,0.049
769.00,0.049
770.00,0.049
771.00,0.049
772.00,0.049
773.00,0.049
774.00,0.049
775.00,0.049
776.00,0.048
777.00,0.048
778.00,0.048
779.00,0.048
780.00,0.048
781.00,0.048
782.00,0.048
783.00,0.048
784.00,0.048
785.00,0.048
786.00,0.047
787.00,0.047
788.00,0.047
789.00,0.047
790.00,0.047
791.00,0.047
792.00,0.047
793.00,0.047
794.00,0.047
795.00,0.047
796.00,0.047
797.00,0.046
798.00,0.046
799.00,0.046
800.00,0.046
801.00,0.046
802.00,0.046
803.00,0.046
804.00,0.046
805.00,0.046
806.00,0.046
807.00,0.046
808.00,0.046
809.00,0.046
810.00,0.046
811.00,0.046
812.00,0.046
813.00,0.046
814.00,0.046
815.00,0.046
816.00,0.046
817.00,0.046
818.00,0.046
819.00,0.046
820.00,0.046
821.00,0.047
822.00,0.047
823.00,0.047
824.00,0.047
825.00,0.048
826.00,0.048
827.00,0.049
828.00,0.049
829.00,0.050
830.00,0.050
831.00,0.051
832.00,0.051
833.00,0.052
834.00,0.052
835.00,0.052
836.00,0.052
837.00,0.052
838.00,0.053
839.00,0.053
840.00,0.053
841.00,0.053
842.00,0.053
843.00,0.053
844.00,0.053
845.00,0.053
846.00,0.053
847.00,0.054
848.00,0.054
849.00,0.054
850.00,0.054
851.00,0.054
852.00,0.054
853.00,0.054
854.00,0.054
855.00,0.054
856.00,0.054
857.00,0.055
858.00,0.055
859.00,0.055
860.00,0.055
861.00,0.055
862.00,0.055
863.00,0.055
864.00,0.055
865.00,0.055
866.00,0.056
867.00,0.056
868.00,0.056
869.00,0.056
870.00,0.056
871.00,0.056
872.00,0.056
873.00,0.057
874.00,0.057
875.00,0.057
876.00,0.057
877.00,0.057
878.00,0.058
879.00,0.058
880.00,0.058
881.00,0.058
882.00,0.058
883.00,0.059
884.00,0.059
885.00,0.059
886.00,0.059
887.00,0.060
888.00,0.060
889.00,0.060
890.00,0.060
891.00,0.061
892.00,0.061
893.00,0.061
894.00,0.061
895.00,0.061
896.00,0.062
897.00,0.062
898.00,0.062
899.00,0.062
900.00,0.062
