"DunhamCyclope50x - RawData"
"Wavelength nm.","Abs."
190.00,2.736
191.00,3.223
192.00,3.148
193.00,3.268
194.00,3.157
195.00,3.212
196.00,3.305
197.00,3.339
198.00,3.394
199.00,3.370
200.00,3.460
201.00,3.369
202.00,3.535
203.00,3.523
204.00,3.422
205.00,3.440
206.00,3.395
207.00,3.438
208.00,3.256
209.00,3.133
210.00,3.051
211.00,2.915
212.00,2.848
213.00,2.716
214.00,2.608
215.00,2.506
216.00,2.398
217.00,2.295
218.00,2.200
219.00,2.100
220.00,2.006
221.00,1.919
222.00,1.833
223.00,1.752
224.00,1.667
225.00,1.588
226.00,1.509
227.00,1.432
228.00,1.358
229.00,1.292
230.00,1.229
231.00,1.172
232.00,1.119
233.00,1.072
234.00,1.030
235.00,0.994
236.00,0.962
237.00,0.934
238.00,0.910
239.00,0.890
240.00,0.872
241.00,0.856
242.00,0.845
243.00,0.835
244.00,0.828
245.00,0.822
246.00,0.817
247.00,0.814
248.00,0.812
249.00,0.811
250.00,0.811
251.00,0.813
252.00,0.814
253.00,0.817
254.00,0.819
255.00,0.821
256.00,0.824
257.00,0.826
258.00,0.826
259.00,0.827
260.00,0.827
261.00,0.827
262.00,0.828
263.00,0.829
264.00,0.830
265.00,0.830
266.00,0.829
267.00,0.828
268.00,0.826
269.00,0.823
270.00,0.818
271.00,0.813
272.00,0.807
273.00,0.799
274.00,0.790
275.00,0.779
276.00,0.767
277.00,0.754
278.00,0.739
279.00,0.724
280.00,0.707
281.00,0.690
282.00,0.672
283.00,0.652
284.00,0.632
285.00,0.610
286.00,0.589
287.00,0.568
288.00,0.547
289.00,0.526
290.00,0.503
291.00,0.482
292.00,0.462
293.00,0.446
294.00,0.432
295.00,0.419
296.00,0.408
297.00,0.399
298.00,0.391
299.00,0.383
300.00,0.377
301.00,0.370
302.00,0.365
303.00,0.361
304.00,0.356
305.00,0.353
306.00,0.349
307.00,0.346
308.00,0.342
309.00,0.340
310.00,0.337
311.00,0.334
312.00,0.332
313.00,0.329
314.00,0.326
315.00,0.324
316.00,0.321
317.00,0.319
318.00,0.317
319.00,0.313
320.00,0.311
321.00,0.308
322.00,0.305
323.00,0.301
324.00,0.299
325.00,0.295
326.00,0.292
327.00,0.288
328.00,0.284
329.00,0.280
330.00,0.276
331.00,0.272
332.00,0.268
333.00,0.264
334.00,0.259
335.00,0.255
336.00,0.251
337.00,0.247
338.00,0.243
339.00,0.239
340.00,0.235
341.00,0.229
342.00,0.225
343.00,0.221
344.00,0.217
345.00,0.213
346.00,0.210
347.00,0.206
348.00,0.202
349.00,0.198
350.00,0.195
351.00,0.191
352.00,0.188
353.00,0.185
354.00,0.181
355.00,0.178
356.00,0.175
357.00,0.172
358.00,0.169
359.00,0.166
360.00,0.163
361.00,0.161
362.00,0.159
363.00,0.156
364.00,0.153
365.00,0.151
366.00,0.149
367.00,0.146
368.00,0.144
369.00,0.142
370.00,0.139
371.00,0.137
372.00,0.135
373.00,0.133
374.00,0.131
375.00,0.129
376.00,0.127
377.00,0.125
378.00,0.123
379.00,0.121
380.00,0.119
381.00,0.117
382.00,0.116
383.00,0.114
384.00,0.112
385.00,0.111
386.00,0.109
387.00,0.108
388.00,0.106
389.00,0.105
390.00,0.103
391.00,0.102
392.00,0.101
393.00,0.100
394.00,0.098
395.00,0.097
396.00,0.096
397.00,0.095
398.00,0.094
399.00,0.093
400.00,0.092
401.00,0.091
402.00,0.090
403.00,0.090
404.00,0.089
405.00,0.088
406.00,0.088
407.00,0.087
408.00,0.086
409.00,0.086
410.00,0.085
411.00,0.084
412.00,0.084
413.00,0.083
414.00,0.083
415.00,0.083
416.00,0.082
417.00,0.082
418.00,0.082
419.00,0.081
420.00,0.081
421.00,0.080
422.00,0.080
423.00,0.080
424.00,0.080
425.00,0.079
426.00,0.079
427.00,0.079
428.00,0.078
429.00,0.078
430.00,0.078
431.00,0.078
432.00,0.077
433.00,0.077
434.00,0.077
435.00,0.077
436.00,0.076
437.00,0.076
438.00,0.076
439.00,0.076
440.00,0.075
441.00,0.075
442.00,0.075
443.00,0.075
444.00,0.075
445.00,0.075
446.00,0.074
447.00,0.074
448.00,0.074
449.00,0.074
450.00,0.074
451.00,0.073
452.00,0.073
453.00,0.073
454.00,0.073
455.00,0.073
456.00,0.073
457.00,0.072
458.00,0.072
459.00,0.072
460.00,0.072
461.00,0.072
462.00,0.072
463.00,0.071
464.00,0.071
465.00,0.071
466.00,0.071
467.00,0.071
468.00,0.071
469.00,0.071
470.00,0.070
471.00,0.070
472.00,0.070
473.00,0.070
474.00,0.070
475.00,0.070
476.00,0.069
477.00,0.069
478.00,0.069
479.00,0.069
480.00,0.069
481.00,0.069
482.00,0.068
483.00,0.068
484.00,0.068
485.00,0.068
486.00,0.068
487.00,0.068
488.00,0.068
489.00,0.067
490.00,0.067
491.00,0.067
492.00,0.067
493.00,0.067
494.00,0.067
495.00,0.066
496.00,0.066
497.00,0.066
498.00,0.066
499.00,0.066
500.00,0.066
501.00,0.066
502.00,0.065
503.00,0.065
504.00,0.065
505.00,0.065
506.00,0.065
507.00,0.065
508.00,0.065
509.00,0.064
510.00,0.064
511.00,0.064
512.00,0.064
513.00,0.064
514.00,0.064
515.00,0.064
516.00,0.064
517.00,0.063
518.00,0.063
519.00,0.063
520.00,0.063
521.00,0.063
522.00,0.063
523.00,0.063
524.00,0.062
525.00,0.062
526.00,0.062
527.00,0.062
528.00,0.062
529.00,0.062
530.00,0.062
531.00,0.062
532.00,0.062
533.00,0.061
534.00,0.061
535.00,0.061
536.00,0.061
537.00,0.061
538.00,0.061
539.00,0.061
540.00,0.061
541.00,0.060
542.00,0.060
543.00,0.060
544.00,0.060
545.00,0.060
546.00,0.060
547.00,0.060
548.00,0.060
549.00,0.060
550.00,0.060
551.00,0.060
552.00,0.059
553.00,0.059
554.00,0.059
555.00,0.059
556.00,0.059
557.00,0.059
558.00,0.059
559.00,0.059
560.00,0.059
561.00,0.059
562.00,0.059
563.00,0.059
564.00,0.059
565.00,0.058
566.00,0.058
567.00,0.058
568.00,0.058
569.00,0.058
570.00,0.058
571.00,0.058
572.00,0.058
573.00,0.058
574.00,0.058
575.00,0.058
576.00,0.058
577.00,0.058
578.00,0.058
579.00,0.058
580.00,0.057
581.00,0.057
582.00,0.057
583.00,0.057
584.00,0.057
585.00,0.057
586.00,0.057
587.00,0.057
588.00,0.057
589.00,0.057
590.00,0.057
591.00,0.057
592.00,0.057
593.00,0.057
594.00,0.057
595.00,0.057
596.00,0.057
597.00,0.057
598.00,0.057
599.00,0.057
600.00,0.057
601.00,0.057
602.00,0.057
603.00,0.057
604.00,0.057
605.00,0.056
606.00,0.056
607.00,0.056
608.00,0.056
609.00,0.056
610.00,0.056
611.00,0.056
612.00,0.056
613.00,0.056
614.00,0.056
615.00,0.056
616.00,0.056
617.00,0.056
618.00,0.056
619.00,0.056
620.00,0.055
621.00,0.055
622.00,0.055
623.00,0.055
624.00,0.055
625.00,0.055
626.00,0.055
627.00,0.055
628.00,0.055
629.00,0.055
630.00,0.055
631.00,0.055
632.00,0.055
633.00,0.055
634.00,0.055
635.00,0.055
636.00,0.055
637.00,0.054
638.00,0.054
639.00,0.054
640.00,0.054
641.00,0.054
642.00,0.054
643.00,0.054
644.00,0.054
645.00,0.054
646.00,0.054
647.00,0.054
648.00,0.054
649.00,0.054
650.00,0.054
651.00,0.054
652.00,0.054
653.00,0.054
654.00,0.054
655.00,0.054
656.00,0.054
657.00,0.054
658.00,0.054
659.00,0.054
660.00,0.054
661.00,0.054
662.00,0.054
663.00,0.054
664.00,0.054
665.00,0.054
666.00,0.053
667.00,0.053
668.00,0.053
669.00,0.053
670.00,0.053
671.00,0.053
672.00,0.053
673.00,0.053
674.00,0.053
675.00,0.053
676.00,0.053
677.00,0.053
678.00,0.053
679.00,0.053
680.00,0.053
681.00,0.053
682.00,0.053
683.00,0.053
684.00,0.053
685.00,0.053
686.00,0.053
687.00,0.053
688.00,0.053
689.00,0.053
690.00,0.053
691.00,0.053
692.00,0.053
693.00,0.053
694.00,0.053
695.00,0.052
696.00,0.053
697.00,0.053
698.00,0.053
699.00,0.053
700.00,0.053
701.00,0.053
702.00,0.053
703.00,0.053
704.00,0.053
705.00,0.053
706.00,0.053
707.00,0.053
708.00,0.053
709.00,0.053
710.00,0.053
711.00,0.053
712.00,0.053
713.00,0.053
714.00,0.053
715.00,0.054
716.00,0.054
717.00,0.054
718.00,0.054
719.00,0.054
720.00,0.054
721.00,0.055
722.00,0.055
723.00,0.055
724.00,0.055
725.00,0.055
726.00,0.056
727.00,0.056
728.00,0.056
729.00,0.057
730.00,0.057
731.00,0.058
732.00,0.058
733.00,0.059
734.00,0.059
735.00,0.059
736.00,0.060
737.00,0.060
738.00,0.060
739.00,0.060
740.00,0.060
741.00,0.060
742.00,0.060
743.00,0.060
744.00,0.060
745.00,0.060
746.00,0.060
747.00,0.060
748.00,0.060
749.00,0.060
750.00,0.060
751.00,0.060
752.00,0.060
753.00,0.060
754.00,0.060
755.00,0.060
756.00,0.060
757.00,0.060
758.00,0.060
759.00,0.060
760.00,0.060
761.00,0.060
762.00,0.060
763.00,0.059
764.00,0.059
765.00,0.059
766.00,0.059
767.00,0.059
768.00,0.059
769.00,0.059
770.00,0.059
771.00,0.059
772.00,0.059
773.00,0.059
774.00,0.059
775.00,0.059
776.00,0.059
777.00,0.058
778.00,0.058
779.00,0.058
780.00,0.058
781.00,0.058
782.00,0.058
783.00,0.058
784.00,0.058
785.00,0.057
786.00,0.057
787.00,0.057
788.00,0.057
789.00,0.057
790.00,0.057
791.00,0.057
792.00,0.057
793.00,0.057
794.00,0.056
795.00,0.056
796.00,0.056
797.00,0.056
798.00,0.056
799.00,0.056
800.00,0.056
801.00,0.056
802.00,0.055
803.00,0.055
804.00,0.055
805.00,0.055
806.00,0.055
807.00,0.055
808.00,0.055
809.00,0.055
810.00,0.055
811.00,0.055
812.00,0.055
813.00,0.055
814.00,0.055
815.00,0.055
816.00,0.055
817.00,0.055
818.00,0.055
819.00,0.056
820.00,0.056
821.00,0.056
822.00,0.056
823.00,0.056
824.00,0.057
825.00,0.057
826.00,0.057
827.00,0.058
828.00,0.058
829.00,0.059
830.00,0.059
831.00,0.060
832.00,0.060
833.00,0.061
834.00,0.061
835.00,0.061
836.00,0.061
837.00,0.062
838.00,0.062
839.00,0.062
840.00,0.062
841.00,0.062
842.00,0.062
843.00,0.062
844.00,0.062
845.00,0.062
846.00,0.062
847.00,0.063
848.00,0.063
849.00,0.063
850.00,0.063
851.00,0.063
852.00,0.063
853.00,0.063
854.00,0.063
855.00,0.063
856.00,0.063
857.00,0.064
858.00,0.064
859.00,0.064
860.00,0.064
861.00,0.064
862.00,0.064
863.00,0.064
864.00,0.064
865.00,0.064
866.00,0.064
867.00,0.064
868.00,0.064
869.00,0.065
870.00,0.065
871.00,0.065
872.00,0.065
873.00,0.065
874.00,0.066
875.00,0.066
876.00,0.066
877.00,0.066
878.00,0.066
879.00,0.066
880.00,0.067
881.00,0.067
882.00,0.067
883.00,0.067
884.00,0.068
885.00,0.068
886.00,0.068
887.00,0.068
888.00,0.068
889.00,0.069
890.00,0.069
891.00,0.069
892.00,0.069
893.00,0.070
894.00,0.070
895.00,0.070
896.00,0.070
897.00,0.070
898.00,0.071
899.00,0.071
900.00,0.071
