"EspacePubliqueGazebo50x - RawData"
"Wavelength nm.","Abs."
190.00,2.755
191.00,2.968
192.00,3.144
193.00,2.977
194.00,3.062
195.00,3.114
196.00,3.392
197.00,3.421
198.00,3.219
199.00,3.301
200.00,3.293
201.00,3.228
202.00,3.572
203.00,3.309
204.00,3.448
205.00,3.377
206.00,3.342
207.00,3.216
208.00,3.162
209.00,3.092
210.00,2.958
211.00,2.834
212.00,2.715
213.00,2.621
214.00,2.520
215.00,2.407
216.00,2.302
217.00,2.200
218.00,2.098
219.00,1.998
220.00,1.900
221.00,1.809
222.00,1.721
223.00,1.636
224.00,1.547
225.00,1.462
226.00,1.377
227.00,1.289
228.00,1.202
229.00,1.122
230.00,1.046
231.00,0.977
232.00,0.915
233.00,0.858
234.00,0.808
235.00,0.765
236.00,0.728
237.00,0.696
238.00,0.670
239.00,0.649
240.00,0.631
241.00,0.618
242.00,0.608
243.00,0.602
244.00,0.598
245.00,0.595
246.00,0.594
247.00,0.595
248.00,0.596
249.00,0.598
250.00,0.601
251.00,0.604
252.00,0.608
253.00,0.612
254.00,0.616
255.00,0.621
256.00,0.625
257.00,0.629
258.00,0.633
259.00,0.636
260.00,0.638
261.00,0.641
262.00,0.644
263.00,0.647
264.00,0.650
265.00,0.652
266.00,0.653
267.00,0.653
268.00,0.653
269.00,0.652
270.00,0.650
271.00,0.647
272.00,0.643
273.00,0.639
274.00,0.634
275.00,0.627
276.00,0.619
277.00,0.611
278.00,0.601
279.00,0.591
280.00,0.580
281.00,0.569
282.00,0.556
283.00,0.542
284.00,0.528
285.00,0.512
286.00,0.497
287.00,0.483
288.00,0.468
289.00,0.454
290.00,0.439
291.00,0.424
292.00,0.410
293.00,0.398
294.00,0.387
295.00,0.377
296.00,0.368
297.00,0.359
298.00,0.352
299.00,0.344
300.00,0.337
301.00,0.331
302.00,0.326
303.00,0.321
304.00,0.317
305.00,0.313
306.00,0.310
307.00,0.307
308.00,0.304
309.00,0.301
310.00,0.300
311.00,0.298
312.00,0.296
313.00,0.294
314.00,0.292
315.00,0.291
316.00,0.289
317.00,0.288
318.00,0.286
319.00,0.284
320.00,0.282
321.00,0.281
322.00,0.279
323.00,0.276
324.00,0.274
325.00,0.271
326.00,0.269
327.00,0.266
328.00,0.263
329.00,0.260
330.00,0.256
331.00,0.253
332.00,0.249
333.00,0.245
334.00,0.241
335.00,0.238
336.00,0.234
337.00,0.231
338.00,0.227
339.00,0.223
340.00,0.219
341.00,0.215
342.00,0.211
343.00,0.207
344.00,0.204
345.00,0.200
346.00,0.196
347.00,0.193
348.00,0.189
349.00,0.186
350.00,0.182
351.00,0.179
352.00,0.176
353.00,0.173
354.00,0.170
355.00,0.167
356.00,0.165
357.00,0.162
358.00,0.159
359.00,0.157
360.00,0.155
361.00,0.153
362.00,0.151
363.00,0.149
364.00,0.147
365.00,0.145
366.00,0.144
367.00,0.142
368.00,0.140
369.00,0.139
370.00,0.137
371.00,0.136
372.00,0.135
373.00,0.134
374.00,0.132
375.00,0.131
376.00,0.130
377.00,0.129
378.00,0.128
379.00,0.127
380.00,0.126
381.00,0.125
382.00,0.124
383.00,0.123
384.00,0.123
385.00,0.122
386.00,0.121
387.00,0.120
388.00,0.120
389.00,0.119
390.00,0.118
391.00,0.118
392.00,0.117
393.00,0.117
394.00,0.116
395.00,0.116
396.00,0.115
397.00,0.115
398.00,0.114
399.00,0.114
400.00,0.113
401.00,0.113
402.00,0.112
403.00,0.112
404.00,0.111
405.00,0.111
406.00,0.111
407.00,0.110
408.00,0.110
409.00,0.109
410.00,0.109
411.00,0.109
412.00,0.108
413.00,0.108
414.00,0.108
415.00,0.107
416.00,0.107
417.00,0.107
418.00,0.107
419.00,0.107
420.00,0.106
421.00,0.106
422.00,0.106
423.00,0.106
424.00,0.105
425.00,0.105
426.00,0.105
427.00,0.105
428.00,0.104
429.00,0.104
430.00,0.104
431.00,0.104
432.00,0.104
433.00,0.103
434.00,0.103
435.00,0.103
436.00,0.103
437.00,0.103
438.00,0.103
439.00,0.102
440.00,0.102
441.00,0.102
442.00,0.102
443.00,0.102
444.00,0.102
445.00,0.101
446.00,0.101
447.00,0.101
448.00,0.101
449.00,0.101
450.00,0.101
451.00,0.101
452.00,0.100
453.00,0.100
454.00,0.100
455.00,0.100
456.00,0.100
457.00,0.100
458.00,0.100
459.00,0.099
460.00,0.099
461.00,0.099
462.00,0.099
463.00,0.099
464.00,0.099
465.00,0.099
466.00,0.099
467.00,0.099
468.00,0.098
469.00,0.098
470.00,0.098
471.00,0.098
472.00,0.098
473.00,0.098
474.00,0.098
475.00,0.098
476.00,0.097
477.00,0.097
478.00,0.097
479.00,0.097
480.00,0.097
481.00,0.097
482.00,0.097
483.00,0.097
484.00,0.097
485.00,0.096
486.00,0.097
487.00,0.097
488.00,0.096
489.00,0.096
490.00,0.096
491.00,0.096
492.00,0.096
493.00,0.096
494.00,0.096
495.00,0.096
496.00,0.096
497.00,0.095
498.00,0.095
499.00,0.095
500.00,0.095
501.00,0.095
502.00,0.095
503.00,0.095
504.00,0.095
505.00,0.095
506.00,0.095
507.00,0.095
508.00,0.095
509.00,0.094
510.00,0.094
511.00,0.094
512.00,0.094
513.00,0.094
514.00,0.094
515.00,0.094
516.00,0.094
517.00,0.094
518.00,0.094
519.00,0.094
520.00,0.094
521.00,0.094
522.00,0.094
523.00,0.093
524.00,0.093
525.00,0.093
526.00,0.093
527.00,0.093
528.00,0.093
529.00,0.093
530.00,0.093
531.00,0.093
532.00,0.093
533.00,0.093
534.00,0.093
535.00,0.093
536.00,0.093
537.00,0.092
538.00,0.092
539.00,0.092
540.00,0.092
541.00,0.092
542.00,0.092
543.00,0.092
544.00,0.092
545.00,0.092
546.00,0.092
547.00,0.092
548.00,0.092
549.00,0.092
550.00,0.092
551.00,0.092
552.00,0.092
553.00,0.092
554.00,0.092
555.00,0.092
556.00,0.091
557.00,0.091
558.00,0.091
559.00,0.091
560.00,0.091
561.00,0.091
562.00,0.091
563.00,0.091
564.00,0.091
565.00,0.091
566.00,0.091
567.00,0.091
568.00,0.091
569.00,0.091
570.00,0.091
571.00,0.091
572.00,0.091
573.00,0.091
574.00,0.091
575.00,0.091
576.00,0.091
577.00,0.090
578.00,0.090
579.00,0.090
580.00,0.090
581.00,0.090
582.00,0.090
583.00,0.090
584.00,0.090
585.00,0.090
586.00,0.090
587.00,0.090
588.00,0.090
589.00,0.090
590.00,0.090
591.00,0.090
592.00,0.090
593.00,0.090
594.00,0.090
595.00,0.090
596.00,0.090
597.00,0.090
598.00,0.090
599.00,0.090
600.00,0.090
601.00,0.090
602.00,0.090
603.00,0.090
604.00,0.090
605.00,0.090
606.00,0.090
607.00,0.090
608.00,0.090
609.00,0.090
610.00,0.090
611.00,0.090
612.00,0.090
613.00,0.090
614.00,0.090
615.00,0.090
616.00,0.090
617.00,0.090
618.00,0.090
619.00,0.090
620.00,0.090
621.00,0.090
622.00,0.090
623.00,0.090
624.00,0.090
625.00,0.090
626.00,0.090
627.00,0.090
628.00,0.090
629.00,0.090
630.00,0.090
631.00,0.090
632.00,0.090
633.00,0.090
634.00,0.090
635.00,0.090
636.00,0.090
637.00,0.089
638.00,0.089
639.00,0.089
640.00,0.089
641.00,0.089
642.00,0.089
643.00,0.089
644.00,0.089
645.00,0.090
646.00,0.089
647.00,0.089
648.00,0.089
649.00,0.089
650.00,0.089
651.00,0.089
652.00,0.089
653.00,0.089
654.00,0.089
655.00,0.089
656.00,0.089
657.00,0.089
658.00,0.089
659.00,0.089
660.00,0.089
661.00,0.089
662.00,0.089
663.00,0.089
664.00,0.089
665.00,0.089
666.00,0.089
667.00,0.089
668.00,0.089
669.00,0.089
670.00,0.089
671.00,0.089
672.00,0.089
673.00,0.089
674.00,0.089
675.00,0.089
676.00,0.089
677.00,0.089
678.00,0.089
679.00,0.089
680.00,0.088
681.00,0.089
682.00,0.089
683.00,0.089
684.00,0.088
685.00,0.088
686.00,0.088
687.00,0.088
688.00,0.089
689.00,0.089
690.00,0.089
691.00,0.089
692.00,0.089
693.00,0.089
694.00,0.089
695.00,0.089
696.00,0.089
697.00,0.089
698.00,0.089
699.00,0.089
700.00,0.089
701.00,0.089
702.00,0.089
703.00,0.089
704.00,0.089
705.00,0.089
706.00,0.089
707.00,0.089
708.00,0.089
709.00,0.089
710.00,0.089
711.00,0.089
712.00,0.090
713.00,0.090
714.00,0.090
715.00,0.090
716.00,0.090
717.00,0.090
718.00,0.091
719.00,0.091
720.00,0.091
721.00,0.091
722.00,0.091
723.00,0.091
724.00,0.092
725.00,0.092
726.00,0.092
727.00,0.093
728.00,0.093
729.00,0.093
730.00,0.094
731.00,0.094
732.00,0.095
733.00,0.095
734.00,0.096
735.00,0.096
736.00,0.096
737.00,0.097
738.00,0.097
739.00,0.097
740.00,0.097
741.00,0.097
742.00,0.097
743.00,0.097
744.00,0.097
745.00,0.097
746.00,0.097
747.00,0.097
748.00,0.097
749.00,0.097
750.00,0.097
751.00,0.097
752.00,0.097
753.00,0.097
754.00,0.097
755.00,0.097
756.00,0.097
757.00,0.097
758.00,0.097
759.00,0.097
760.00,0.097
761.00,0.097
762.00,0.097
763.00,0.097
764.00,0.096
765.00,0.096
766.00,0.096
767.00,0.096
768.00,0.096
769.00,0.096
770.00,0.096
771.00,0.096
772.00,0.096
773.00,0.096
774.00,0.096
775.00,0.096
776.00,0.096
777.00,0.095
778.00,0.095
779.00,0.095
780.00,0.095
781.00,0.095
782.00,0.095
783.00,0.095
784.00,0.095
785.00,0.095
786.00,0.094
787.00,0.094
788.00,0.094
789.00,0.094
790.00,0.094
791.00,0.094
792.00,0.094
793.00,0.094
794.00,0.094
795.00,0.093
796.00,0.093
797.00,0.093
798.00,0.093
799.00,0.093
800.00,0.093
801.00,0.093
802.00,0.093
803.00,0.093
804.00,0.093
805.00,0.093
806.00,0.092
807.00,0.092
808.00,0.092
809.00,0.092
810.00,0.092
811.00,0.092
812.00,0.092
813.00,0.092
814.00,0.093
815.00,0.093
816.00,0.093
817.00,0.093
818.00,0.093
819.00,0.093
820.00,0.093
821.00,0.093
822.00,0.093
823.00,0.094
824.00,0.094
825.00,0.094
826.00,0.095
827.00,0.095
828.00,0.096
829.00,0.096
830.00,0.097
831.00,0.097
832.00,0.098
833.00,0.098
834.00,0.098
835.00,0.099
836.00,0.099
837.00,0.099
838.00,0.099
839.00,0.099
840.00,0.099
841.00,0.099
842.00,0.100
843.00,0.100
844.00,0.100
845.00,0.100
846.00,0.100
847.00,0.100
848.00,0.100
849.00,0.100
850.00,0.100
851.00,0.100
852.00,0.101
853.00,0.101
854.00,0.101
855.00,0.101
856.00,0.101
857.00,0.101
858.00,0.101
859.00,0.101
860.00,0.101
861.00,0.101
862.00,0.101
863.00,0.101
864.00,0.102
865.00,0.102
866.00,0.102
867.00,0.102
868.00,0.102
869.00,0.102
870.00,0.102
871.00,0.102
872.00,0.103
873.00,0.103
874.00,0.103
875.00,0.103
876.00,0.103
877.00,0.103
878.00,0.104
879.00,0.104
880.00,0.104
881.00,0.104
882.00,0.104
883.00,0.105
884.00,0.105
885.00,0.105
886.00,0.105
887.00,0.106
888.00,0.106
889.00,0.106
890.00,0.106
891.00,0.107
892.00,0.107
893.00,0.107
894.00,0.107
895.00,0.108
896.00,0.108
897.00,0.108
898.00,0.108
899.00,0.108
900.00,0.108
