"FramptonBrasseNuitDAutomne50x - RawData"
"Wavelength nm.","Abs."
190.00,3.857
191.00,3.613
192.00,3.704
193.00,3.734
194.00,3.808
195.00,3.902
196.00,3.910
197.00,3.957
198.00,4.000
199.00,3.966
200.00,3.933
201.00,3.916
202.00,3.934
203.00,4.000
204.00,3.978
205.00,3.917
206.00,3.993
207.00,4.000
208.00,3.984
209.00,4.000
210.00,3.995
211.00,3.982
212.00,3.995
213.00,3.999
214.00,3.989
215.00,3.920
216.00,3.938
217.00,3.980
218.00,3.977
219.00,3.994
220.00,3.988
221.00,3.979
222.00,3.948
223.00,3.834
224.00,3.695
225.00,3.467
226.00,3.443
227.00,3.224
228.00,3.096
229.00,2.945
230.00,2.783
231.00,2.647
232.00,2.529
233.00,2.417
234.00,2.314
235.00,2.226
236.00,2.152
237.00,2.088
238.00,2.031
239.00,1.984
240.00,1.945
241.00,1.912
242.00,1.891
243.00,1.873
244.00,1.860
245.00,1.851
246.00,1.844
247.00,1.842
248.00,1.843
249.00,1.843
250.00,1.845
251.00,1.848
252.00,1.852
253.00,1.860
254.00,1.863
255.00,1.871
256.00,1.879
257.00,1.883
258.00,1.887
259.00,1.890
260.00,1.893
261.00,1.893
262.00,1.893
263.00,1.899
264.00,1.897
265.00,1.899
266.00,1.893
267.00,1.891
268.00,1.888
269.00,1.882
270.00,1.876
271.00,1.869
272.00,1.852
273.00,1.843
274.00,1.828
275.00,1.807
276.00,1.789
277.00,1.767
278.00,1.744
279.00,1.722
280.00,1.693
281.00,1.664
282.00,1.639
283.00,1.609
284.00,1.577
285.00,1.541
286.00,1.509
287.00,1.476
288.00,1.444
289.00,1.410
290.00,1.376
291.00,1.342
292.00,1.311
293.00,1.280
294.00,1.257
295.00,1.233
296.00,1.211
297.00,1.192
298.00,1.172
299.00,1.155
300.00,1.138
301.00,1.121
302.00,1.106
303.00,1.091
304.00,1.078
305.00,1.065
306.00,1.048
307.00,1.035
308.00,1.021
309.00,1.010
310.00,0.997
311.00,0.986
312.00,0.975
313.00,0.965
314.00,0.955
315.00,0.944
316.00,0.934
317.00,0.924
318.00,0.913
319.00,0.903
320.00,0.893
321.00,0.882
322.00,0.871
323.00,0.861
324.00,0.850
325.00,0.838
326.00,0.827
327.00,0.816
328.00,0.804
329.00,0.792
330.00,0.781
331.00,0.769
332.00,0.757
333.00,0.745
334.00,0.733
335.00,0.721
336.00,0.710
337.00,0.699
338.00,0.687
339.00,0.675
340.00,0.664
341.00,0.653
342.00,0.642
343.00,0.630
344.00,0.620
345.00,0.609
346.00,0.599
347.00,0.590
348.00,0.580
349.00,0.569
350.00,0.559
351.00,0.550
352.00,0.541
353.00,0.532
354.00,0.523
355.00,0.515
356.00,0.507
357.00,0.499
358.00,0.490
359.00,0.482
360.00,0.475
361.00,0.468
362.00,0.461
363.00,0.455
364.00,0.449
365.00,0.443
366.00,0.437
367.00,0.431
368.00,0.426
369.00,0.420
370.00,0.415
371.00,0.410
372.00,0.405
373.00,0.400
374.00,0.395
375.00,0.390
376.00,0.386
377.00,0.381
378.00,0.377
379.00,0.373
380.00,0.368
381.00,0.364
382.00,0.361
383.00,0.357
384.00,0.353
385.00,0.349
386.00,0.346
387.00,0.343
388.00,0.339
389.00,0.336
390.00,0.333
391.00,0.329
392.00,0.326
393.00,0.323
394.00,0.320
395.00,0.317
396.00,0.315
397.00,0.312
398.00,0.310
399.00,0.307
400.00,0.305
401.00,0.302
402.00,0.300
403.00,0.297
404.00,0.295
405.00,0.293
406.00,0.291
407.00,0.289
408.00,0.287
409.00,0.284
410.00,0.282
411.00,0.280
412.00,0.278
413.00,0.277
414.00,0.275
415.00,0.273
416.00,0.271
417.00,0.269
418.00,0.267
419.00,0.266
420.00,0.264
421.00,0.262
422.00,0.260
423.00,0.259
424.00,0.257
425.00,0.255
426.00,0.254
427.00,0.252
428.00,0.250
429.00,0.249
430.00,0.247
431.00,0.246
432.00,0.244
433.00,0.243
434.00,0.241
435.00,0.240
436.00,0.238
437.00,0.237
438.00,0.236
439.00,0.235
440.00,0.233
441.00,0.232
442.00,0.231
443.00,0.229
444.00,0.228
445.00,0.227
446.00,0.226
447.00,0.225
448.00,0.224
449.00,0.223
450.00,0.221
451.00,0.220
452.00,0.219
453.00,0.218
454.00,0.217
455.00,0.216
456.00,0.215
457.00,0.214
458.00,0.213
459.00,0.212
460.00,0.211
461.00,0.210
462.00,0.209
463.00,0.208
464.00,0.207
465.00,0.206
466.00,0.205
467.00,0.204
468.00,0.203
469.00,0.203
470.00,0.202
471.00,0.201
472.00,0.200
473.00,0.199
474.00,0.198
475.00,0.197
476.00,0.196
477.00,0.196
478.00,0.195
479.00,0.194
480.00,0.193
481.00,0.192
482.00,0.192
483.00,0.191
484.00,0.190
485.00,0.189
486.00,0.188
487.00,0.188
488.00,0.187
489.00,0.186
490.00,0.185
491.00,0.185
492.00,0.184
493.00,0.183
494.00,0.183
495.00,0.182
496.00,0.181
497.00,0.181
498.00,0.180
499.00,0.179
500.00,0.179
501.00,0.178
502.00,0.177
503.00,0.177
504.00,0.176
505.00,0.176
506.00,0.175
507.00,0.174
508.00,0.174
509.00,0.173
510.00,0.173
511.00,0.172
512.00,0.172
513.00,0.171
514.00,0.171
515.00,0.170
516.00,0.170
517.00,0.169
518.00,0.169
519.00,0.168
520.00,0.168
521.00,0.167
522.00,0.167
523.00,0.166
524.00,0.166
525.00,0.165
526.00,0.165
527.00,0.164
528.00,0.164
529.00,0.163
530.00,0.163
531.00,0.162
532.00,0.162
533.00,0.162
534.00,0.161
535.00,0.161
536.00,0.161
537.00,0.160
538.00,0.159
539.00,0.159
540.00,0.159
541.00,0.158
542.00,0.158
543.00,0.157
544.00,0.157
545.00,0.157
546.00,0.156
547.00,0.156
548.00,0.156
549.00,0.155
550.00,0.155
551.00,0.155
552.00,0.154
553.00,0.154
554.00,0.154
555.00,0.153
556.00,0.153
557.00,0.153
558.00,0.153
559.00,0.152
560.00,0.152
561.00,0.152
562.00,0.151
563.00,0.151
564.00,0.151
565.00,0.151
566.00,0.150
567.00,0.150
568.00,0.150
569.00,0.150
570.00,0.149
571.00,0.149
572.00,0.149
573.00,0.149
574.00,0.148
575.00,0.148
576.00,0.148
577.00,0.148
578.00,0.147
579.00,0.147
580.00,0.147
581.00,0.147
582.00,0.146
583.00,0.146
584.00,0.146
585.00,0.146
586.00,0.146
587.00,0.145
588.00,0.145
589.00,0.145
590.00,0.145
591.00,0.145
592.00,0.145
593.00,0.144
594.00,0.144
595.00,0.144
596.00,0.144
597.00,0.144
598.00,0.144
599.00,0.143
600.00,0.143
601.00,0.143
602.00,0.143
603.00,0.143
604.00,0.143
605.00,0.143
606.00,0.142
607.00,0.142
608.00,0.142
609.00,0.142
610.00,0.142
611.00,0.142
612.00,0.141
613.00,0.141
614.00,0.141
615.00,0.141
616.00,0.141
617.00,0.141
618.00,0.141
619.00,0.141
620.00,0.140
621.00,0.140
622.00,0.140
623.00,0.140
624.00,0.140
625.00,0.140
626.00,0.140
627.00,0.139
628.00,0.139
629.00,0.139
630.00,0.139
631.00,0.139
632.00,0.139
633.00,0.138
634.00,0.138
635.00,0.138
636.00,0.138
637.00,0.138
638.00,0.138
639.00,0.138
640.00,0.138
641.00,0.138
642.00,0.138
643.00,0.138
644.00,0.137
645.00,0.137
646.00,0.137
647.00,0.137
648.00,0.137
649.00,0.137
650.00,0.137
651.00,0.136
652.00,0.136
653.00,0.136
654.00,0.136
655.00,0.136
656.00,0.136
657.00,0.136
658.00,0.136
659.00,0.136
660.00,0.136
661.00,0.136
662.00,0.136
663.00,0.136
664.00,0.136
665.00,0.136
666.00,0.135
667.00,0.135
668.00,0.135
669.00,0.135
670.00,0.135
671.00,0.135
672.00,0.135
673.00,0.135
674.00,0.135
675.00,0.135
676.00,0.134
677.00,0.134
678.00,0.134
679.00,0.134
680.00,0.134
681.00,0.134
682.00,0.134
683.00,0.134
684.00,0.134
685.00,0.134
686.00,0.134
687.00,0.134
688.00,0.134
689.00,0.134
690.00,0.134
691.00,0.134
692.00,0.134
693.00,0.134
694.00,0.134
695.00,0.134
696.00,0.133
697.00,0.133
698.00,0.133
699.00,0.133
700.00,0.133
701.00,0.133
702.00,0.133
703.00,0.133
704.00,0.133
705.00,0.133
706.00,0.133
707.00,0.134
708.00,0.134
709.00,0.134
710.00,0.134
711.00,0.134
712.00,0.134
713.00,0.134
714.00,0.134
715.00,0.134
716.00,0.134
717.00,0.134
718.00,0.135
719.00,0.135
720.00,0.135
721.00,0.135
722.00,0.135
723.00,0.135
724.00,0.136
725.00,0.136
726.00,0.136
727.00,0.136
728.00,0.137
729.00,0.137
730.00,0.138
731.00,0.138
732.00,0.139
733.00,0.139
734.00,0.139
735.00,0.140
736.00,0.140
737.00,0.140
738.00,0.140
739.00,0.140
740.00,0.140
741.00,0.140
742.00,0.140
743.00,0.140
744.00,0.140
745.00,0.140
746.00,0.140
747.00,0.140
748.00,0.140
749.00,0.140
750.00,0.140
751.00,0.140
752.00,0.140
753.00,0.140
754.00,0.140
755.00,0.140
756.00,0.140
757.00,0.140
758.00,0.140
759.00,0.140
760.00,0.140
761.00,0.140
762.00,0.140
763.00,0.140
764.00,0.140
765.00,0.140
766.00,0.139
767.00,0.139
768.00,0.139
769.00,0.139
770.00,0.139
771.00,0.139
772.00,0.139
773.00,0.139
774.00,0.139
775.00,0.139
776.00,0.139
777.00,0.139
778.00,0.138
779.00,0.138
780.00,0.138
781.00,0.138
782.00,0.138
783.00,0.138
784.00,0.138
785.00,0.138
786.00,0.138
787.00,0.137
788.00,0.137
789.00,0.137
790.00,0.137
791.00,0.137
792.00,0.137
793.00,0.137
794.00,0.137
795.00,0.137
796.00,0.136
797.00,0.136
798.00,0.136
799.00,0.136
800.00,0.136
801.00,0.136
802.00,0.136
803.00,0.136
804.00,0.136
805.00,0.136
806.00,0.136
807.00,0.135
808.00,0.135
809.00,0.135
810.00,0.135
811.00,0.136
812.00,0.135
813.00,0.135
814.00,0.135
815.00,0.136
816.00,0.136
817.00,0.136
818.00,0.136
819.00,0.136
820.00,0.136
821.00,0.136
822.00,0.136
823.00,0.137
824.00,0.137
825.00,0.137
826.00,0.138
827.00,0.138
828.00,0.139
829.00,0.139
830.00,0.140
831.00,0.140
832.00,0.141
833.00,0.141
834.00,0.141
835.00,0.142
836.00,0.142
837.00,0.142
838.00,0.142
839.00,0.142
840.00,0.143
841.00,0.143
842.00,0.143
843.00,0.143
844.00,0.143
845.00,0.143
846.00,0.143
847.00,0.143
848.00,0.143
849.00,0.143
850.00,0.144
851.00,0.144
852.00,0.144
853.00,0.144
854.00,0.144
855.00,0.144
856.00,0.144
857.00,0.144
858.00,0.144
859.00,0.145
860.00,0.145
861.00,0.145
862.00,0.145
863.00,0.145
864.00,0.145
865.00,0.145
866.00,0.145
867.00,0.145
868.00,0.146
869.00,0.146
870.00,0.146
871.00,0.146
872.00,0.146
873.00,0.146
874.00,0.147
875.00,0.147
876.00,0.147
877.00,0.147
878.00,0.147
879.00,0.148
880.00,0.148
881.00,0.148
882.00,0.148
883.00,0.149
884.00,0.149
885.00,0.149
886.00,0.149
887.00,0.150
888.00,0.150
889.00,0.150
890.00,0.150
891.00,0.151
892.00,0.151
893.00,0.151
894.00,0.151
895.00,0.151
896.00,0.152
897.00,0.152
898.00,0.152
899.00,0.152
900.00,0.153
