"GaiaBenelux50x - RawData"
"Wavelength nm.","Abs."
190.00,3.946
191.00,3.591
192.00,3.252
193.00,3.233
194.00,3.361
195.00,3.442
196.00,3.673
197.00,3.663
198.00,3.694
199.00,3.702
200.00,3.487
201.00,3.347
202.00,3.230
203.00,3.121
204.00,2.968
205.00,2.825
206.00,2.683
207.00,2.542
208.00,2.411
209.00,2.291
210.00,2.178
211.00,2.077
212.00,1.980
213.00,1.892
214.00,1.805
215.00,1.726
216.00,1.649
217.00,1.574
218.00,1.502
219.00,1.430
220.00,1.361
221.00,1.297
222.00,1.233
223.00,1.171
224.00,1.106
225.00,1.043
226.00,0.980
227.00,0.915
228.00,0.851
229.00,0.793
230.00,0.739
231.00,0.691
232.00,0.648
233.00,0.610
234.00,0.578
235.00,0.550
236.00,0.526
237.00,0.506
238.00,0.489
239.00,0.476
240.00,0.466
241.00,0.458
242.00,0.453
243.00,0.449
244.00,0.447
245.00,0.447
246.00,0.447
247.00,0.448
248.00,0.450
249.00,0.452
250.00,0.455
251.00,0.458
252.00,0.461
253.00,0.465
254.00,0.469
255.00,0.472
256.00,0.476
257.00,0.479
258.00,0.481
259.00,0.482
260.00,0.484
261.00,0.485
262.00,0.487
263.00,0.489
264.00,0.490
265.00,0.491
266.00,0.491
267.00,0.491
268.00,0.491
269.00,0.489
270.00,0.486
271.00,0.483
272.00,0.479
273.00,0.475
274.00,0.469
275.00,0.462
276.00,0.455
277.00,0.448
278.00,0.439
279.00,0.430
280.00,0.421
281.00,0.411
282.00,0.400
283.00,0.389
284.00,0.377
285.00,0.363
286.00,0.351
287.00,0.340
288.00,0.327
289.00,0.315
290.00,0.300
291.00,0.286
292.00,0.274
293.00,0.263
294.00,0.253
295.00,0.245
296.00,0.237
297.00,0.231
298.00,0.224
299.00,0.218
300.00,0.213
301.00,0.209
302.00,0.205
303.00,0.202
304.00,0.199
305.00,0.196
306.00,0.194
307.00,0.192
308.00,0.190
309.00,0.189
310.00,0.187
311.00,0.186
312.00,0.185
313.00,0.184
314.00,0.183
315.00,0.182
316.00,0.181
317.00,0.181
318.00,0.180
319.00,0.178
320.00,0.177
321.00,0.176
322.00,0.175
323.00,0.173
324.00,0.172
325.00,0.170
326.00,0.168
327.00,0.166
328.00,0.163
329.00,0.161
330.00,0.159
331.00,0.156
332.00,0.153
333.00,0.150
334.00,0.147
335.00,0.145
336.00,0.142
337.00,0.139
338.00,0.136
339.00,0.133
340.00,0.131
341.00,0.127
342.00,0.123
343.00,0.120
344.00,0.118
345.00,0.115
346.00,0.112
347.00,0.109
348.00,0.106
349.00,0.104
350.00,0.101
351.00,0.099
352.00,0.096
353.00,0.094
354.00,0.092
355.00,0.090
356.00,0.087
357.00,0.085
358.00,0.083
359.00,0.081
360.00,0.079
361.00,0.078
362.00,0.076
363.00,0.074
364.00,0.073
365.00,0.072
366.00,0.070
367.00,0.069
368.00,0.068
369.00,0.067
370.00,0.065
371.00,0.064
372.00,0.063
373.00,0.062
374.00,0.061
375.00,0.060
376.00,0.059
377.00,0.059
378.00,0.058
379.00,0.057
380.00,0.056
381.00,0.056
382.00,0.055
383.00,0.054
384.00,0.054
385.00,0.053
386.00,0.052
387.00,0.052
388.00,0.052
389.00,0.051
390.00,0.051
391.00,0.050
392.00,0.050
393.00,0.049
394.00,0.049
395.00,0.049
396.00,0.048
397.00,0.048
398.00,0.048
399.00,0.048
400.00,0.047
401.00,0.047
402.00,0.047
403.00,0.046
404.00,0.046
405.00,0.046
406.00,0.046
407.00,0.046
408.00,0.045
409.00,0.045
410.00,0.045
411.00,0.045
412.00,0.045
413.00,0.045
414.00,0.044
415.00,0.044
416.00,0.044
417.00,0.044
418.00,0.044
419.00,0.044
420.00,0.044
421.00,0.044
422.00,0.043
423.00,0.043
424.00,0.043
425.00,0.043
426.00,0.043
427.00,0.043
428.00,0.043
429.00,0.043
430.00,0.043
431.00,0.043
432.00,0.042
433.00,0.042
434.00,0.042
435.00,0.042
436.00,0.042
437.00,0.042
438.00,0.042
439.00,0.042
440.00,0.042
441.00,0.042
442.00,0.042
443.00,0.042
444.00,0.042
445.00,0.042
446.00,0.041
447.00,0.041
448.00,0.041
449.00,0.041
450.00,0.041
451.00,0.041
452.00,0.041
453.00,0.041
454.00,0.041
455.00,0.041
456.00,0.041
457.00,0.041
458.00,0.041
459.00,0.041
460.00,0.041
461.00,0.041
462.00,0.041
463.00,0.041
464.00,0.041
465.00,0.040
466.00,0.040
467.00,0.040
468.00,0.040
469.00,0.040
470.00,0.040
471.00,0.040
472.00,0.040
473.00,0.040
474.00,0.040
475.00,0.040
476.00,0.040
477.00,0.040
478.00,0.040
479.00,0.040
480.00,0.040
481.00,0.040
482.00,0.040
483.00,0.040
484.00,0.040
485.00,0.040
486.00,0.040
487.00,0.040
488.00,0.040
489.00,0.040
490.00,0.039
491.00,0.039
492.00,0.039
493.00,0.039
494.00,0.039
495.00,0.039
496.00,0.039
497.00,0.039
498.00,0.039
499.00,0.039
500.00,0.039
501.00,0.039
502.00,0.039
503.00,0.039
504.00,0.039
505.00,0.039
506.00,0.039
507.00,0.039
508.00,0.039
509.00,0.039
510.00,0.039
511.00,0.039
512.00,0.039
513.00,0.039
514.00,0.039
515.00,0.039
516.00,0.039
517.00,0.039
518.00,0.039
519.00,0.039
520.00,0.039
521.00,0.039
522.00,0.039
523.00,0.039
524.00,0.038
525.00,0.038
526.00,0.038
527.00,0.038
528.00,0.038
529.00,0.038
530.00,0.038
531.00,0.038
532.00,0.038
533.00,0.038
534.00,0.038
535.00,0.038
536.00,0.038
537.00,0.038
538.00,0.038
539.00,0.038
540.00,0.038
541.00,0.038
542.00,0.038
543.00,0.038
544.00,0.038
545.00,0.038
546.00,0.038
547.00,0.038
548.00,0.038
549.00,0.038
550.00,0.038
551.00,0.038
552.00,0.038
553.00,0.038
554.00,0.038
555.00,0.038
556.00,0.038
557.00,0.038
558.00,0.038
559.00,0.038
560.00,0.038
561.00,0.037
562.00,0.037
563.00,0.037
564.00,0.037
565.00,0.037
566.00,0.037
567.00,0.037
568.00,0.037
569.00,0.037
570.00,0.037
571.00,0.037
572.00,0.037
573.00,0.037
574.00,0.037
575.00,0.037
576.00,0.037
577.00,0.037
578.00,0.037
579.00,0.037
580.00,0.037
581.00,0.037
582.00,0.037
583.00,0.037
584.00,0.037
585.00,0.037
586.00,0.037
587.00,0.037
588.00,0.037
589.00,0.037
590.00,0.037
591.00,0.037
592.00,0.037
593.00,0.037
594.00,0.037
595.00,0.037
596.00,0.037
597.00,0.037
598.00,0.037
599.00,0.037
600.00,0.037
601.00,0.037
602.00,0.037
603.00,0.037
604.00,0.037
605.00,0.037
606.00,0.037
607.00,0.037
608.00,0.037
609.00,0.037
610.00,0.037
611.00,0.037
612.00,0.037
613.00,0.037
614.00,0.037
615.00,0.037
616.00,0.037
617.00,0.037
618.00,0.037
619.00,0.037
620.00,0.037
621.00,0.037
622.00,0.037
623.00,0.037
624.00,0.037
625.00,0.037
626.00,0.037
627.00,0.037
628.00,0.037
629.00,0.037
630.00,0.037
631.00,0.037
632.00,0.037
633.00,0.037
634.00,0.037
635.00,0.037
636.00,0.036
637.00,0.036
638.00,0.036
639.00,0.036
640.00,0.036
641.00,0.036
642.00,0.036
643.00,0.036
644.00,0.036
645.00,0.036
646.00,0.036
647.00,0.036
648.00,0.036
649.00,0.036
650.00,0.036
651.00,0.036
652.00,0.036
653.00,0.036
654.00,0.036
655.00,0.036
656.00,0.036
657.00,0.037
658.00,0.037
659.00,0.036
660.00,0.037
661.00,0.036
662.00,0.037
663.00,0.037
664.00,0.037
665.00,0.037
666.00,0.037
667.00,0.036
668.00,0.036
669.00,0.036
670.00,0.036
671.00,0.036
672.00,0.036
673.00,0.036
674.00,0.036
675.00,0.036
676.00,0.036
677.00,0.036
678.00,0.036
679.00,0.036
680.00,0.036
681.00,0.036
682.00,0.036
683.00,0.036
684.00,0.036
685.00,0.036
686.00,0.036
687.00,0.036
688.00,0.036
689.00,0.036
690.00,0.036
691.00,0.037
692.00,0.036
693.00,0.037
694.00,0.037
695.00,0.037
696.00,0.037
697.00,0.037
698.00,0.037
699.00,0.037
700.00,0.037
701.00,0.037
702.00,0.037
703.00,0.037
704.00,0.037
705.00,0.037
706.00,0.037
707.00,0.037
708.00,0.037
709.00,0.037
710.00,0.038
711.00,0.038
712.00,0.038
713.00,0.038
714.00,0.038
715.00,0.038
716.00,0.038
717.00,0.039
718.00,0.039
719.00,0.039
720.00,0.039
721.00,0.039
722.00,0.040
723.00,0.040
724.00,0.040
725.00,0.040
726.00,0.041
727.00,0.041
728.00,0.041
729.00,0.042
730.00,0.042
731.00,0.043
732.00,0.043
733.00,0.044
734.00,0.044
735.00,0.045
736.00,0.045
737.00,0.045
738.00,0.045
739.00,0.046
740.00,0.046
741.00,0.046
742.00,0.046
743.00,0.046
744.00,0.046
745.00,0.046
746.00,0.046
747.00,0.046
748.00,0.046
749.00,0.046
750.00,0.046
751.00,0.046
752.00,0.046
753.00,0.046
754.00,0.046
755.00,0.046
756.00,0.046
757.00,0.046
758.00,0.046
759.00,0.046
760.00,0.046
761.00,0.046
762.00,0.046
763.00,0.046
764.00,0.046
765.00,0.046
766.00,0.045
767.00,0.045
768.00,0.045
769.00,0.045
770.00,0.045
771.00,0.045
772.00,0.045
773.00,0.045
774.00,0.045
775.00,0.045
776.00,0.045
777.00,0.045
778.00,0.045
779.00,0.045
780.00,0.045
781.00,0.045
782.00,0.045
783.00,0.044
784.00,0.044
785.00,0.044
786.00,0.044
787.00,0.044
788.00,0.044
789.00,0.044
790.00,0.044
791.00,0.044
792.00,0.043
793.00,0.043
794.00,0.043
795.00,0.043
796.00,0.043
797.00,0.043
798.00,0.043
799.00,0.043
800.00,0.043
801.00,0.043
802.00,0.043
803.00,0.043
804.00,0.043
805.00,0.043
806.00,0.042
807.00,0.042
808.00,0.042
809.00,0.042
810.00,0.042
811.00,0.042
812.00,0.042
813.00,0.042
814.00,0.043
815.00,0.043
816.00,0.043
817.00,0.043
818.00,0.043
819.00,0.043
820.00,0.043
821.00,0.043
822.00,0.044
823.00,0.044
824.00,0.044
825.00,0.044
826.00,0.045
827.00,0.045
828.00,0.046
829.00,0.046
830.00,0.047
831.00,0.048
832.00,0.048
833.00,0.049
834.00,0.049
835.00,0.049
836.00,0.049
837.00,0.049
838.00,0.050
839.00,0.050
840.00,0.050
841.00,0.050
842.00,0.050
843.00,0.050
844.00,0.050
845.00,0.051
846.00,0.051
847.00,0.051
848.00,0.051
849.00,0.051
850.00,0.051
851.00,0.051
852.00,0.051
853.00,0.052
854.00,0.052
855.00,0.052
856.00,0.052
857.00,0.052
858.00,0.052
859.00,0.052
860.00,0.052
861.00,0.052
862.00,0.053
863.00,0.053
864.00,0.053
865.00,0.053
866.00,0.053
867.00,0.053
868.00,0.053
869.00,0.053
870.00,0.054
871.00,0.054
872.00,0.054
873.00,0.054
874.00,0.055
875.00,0.055
876.00,0.055
877.00,0.055
878.00,0.055
879.00,0.056
880.00,0.056
881.00,0.056
882.00,0.056
883.00,0.057
884.00,0.057
885.00,0.057
886.00,0.057
887.00,0.058
888.00,0.058
889.00,0.058
890.00,0.058
891.00,0.059
892.00,0.059
893.00,0.059
894.00,0.059
895.00,0.059
896.00,0.060
897.00,0.060
898.00,0.060
899.00,0.060
900.00,0.061
