"GlutenbergAPAFut50x - RawData"
"Wavelength nm.","Abs."
190.00,3.087
191.00,2.861
192.00,2.881
193.00,2.855
194.00,2.992
195.00,2.984
196.00,2.988
197.00,2.900
198.00,2.849
199.00,2.727
200.00,2.615
201.00,2.528
202.00,2.444
203.00,2.343
204.00,2.236
205.00,2.132
206.00,2.047
207.00,1.957
208.00,1.869
209.00,1.788
210.00,1.710
211.00,1.641
212.00,1.571
213.00,1.507
214.00,1.446
215.00,1.389
216.00,1.333
217.00,1.278
218.00,1.227
219.00,1.177
220.00,1.128
221.00,1.083
222.00,1.040
223.00,0.997
224.00,0.954
225.00,0.914
226.00,0.875
227.00,0.835
228.00,0.797
229.00,0.762
230.00,0.729
231.00,0.697
232.00,0.669
233.00,0.644
234.00,0.621
235.00,0.602
236.00,0.584
237.00,0.569
238.00,0.556
239.00,0.545
240.00,0.536
241.00,0.529
242.00,0.523
243.00,0.519
244.00,0.516
245.00,0.514
246.00,0.513
247.00,0.512
248.00,0.512
249.00,0.513
250.00,0.514
251.00,0.515
252.00,0.517
253.00,0.518
254.00,0.520
255.00,0.521
256.00,0.522
257.00,0.522
258.00,0.523
259.00,0.522
260.00,0.522
261.00,0.521
262.00,0.521
263.00,0.520
264.00,0.520
265.00,0.519
266.00,0.518
267.00,0.518
268.00,0.517
269.00,0.515
270.00,0.514
271.00,0.512
272.00,0.510
273.00,0.507
274.00,0.504
275.00,0.500
276.00,0.495
277.00,0.490
278.00,0.483
279.00,0.476
280.00,0.468
281.00,0.460
282.00,0.451
283.00,0.442
284.00,0.433
285.00,0.423
286.00,0.413
287.00,0.403
288.00,0.392
289.00,0.381
290.00,0.369
291.00,0.358
292.00,0.347
293.00,0.338
294.00,0.330
295.00,0.322
296.00,0.315
297.00,0.309
298.00,0.302
299.00,0.296
300.00,0.291
301.00,0.286
302.00,0.281
303.00,0.277
304.00,0.273
305.00,0.269
306.00,0.266
307.00,0.262
308.00,0.259
309.00,0.255
310.00,0.252
311.00,0.249
312.00,0.247
313.00,0.244
314.00,0.241
315.00,0.239
316.00,0.236
317.00,0.234
318.00,0.232
319.00,0.229
320.00,0.226
321.00,0.224
322.00,0.221
323.00,0.218
324.00,0.215
325.00,0.212
326.00,0.209
327.00,0.206
328.00,0.203
329.00,0.200
330.00,0.196
331.00,0.193
332.00,0.190
333.00,0.186
334.00,0.183
335.00,0.179
336.00,0.176
337.00,0.173
338.00,0.170
339.00,0.166
340.00,0.164
341.00,0.159
342.00,0.156
343.00,0.153
344.00,0.149
345.00,0.146
346.00,0.143
347.00,0.140
348.00,0.137
349.00,0.134
350.00,0.132
351.00,0.129
352.00,0.126
353.00,0.123
354.00,0.121
355.00,0.118
356.00,0.116
357.00,0.114
358.00,0.111
359.00,0.109
360.00,0.107
361.00,0.105
362.00,0.103
363.00,0.101
364.00,0.100
365.00,0.098
366.00,0.096
367.00,0.094
368.00,0.093
369.00,0.091
370.00,0.090
371.00,0.088
372.00,0.087
373.00,0.086
374.00,0.084
375.00,0.083
376.00,0.082
377.00,0.081
378.00,0.079
379.00,0.078
380.00,0.077
381.00,0.076
382.00,0.075
383.00,0.074
384.00,0.073
385.00,0.072
386.00,0.071
387.00,0.071
388.00,0.070
389.00,0.069
390.00,0.068
391.00,0.067
392.00,0.067
393.00,0.066
394.00,0.065
395.00,0.065
396.00,0.064
397.00,0.064
398.00,0.063
399.00,0.063
400.00,0.062
401.00,0.062
402.00,0.061
403.00,0.061
404.00,0.060
405.00,0.060
406.00,0.059
407.00,0.059
408.00,0.059
409.00,0.058
410.00,0.058
411.00,0.058
412.00,0.057
413.00,0.057
414.00,0.057
415.00,0.056
416.00,0.056
417.00,0.056
418.00,0.056
419.00,0.055
420.00,0.055
421.00,0.055
422.00,0.055
423.00,0.054
424.00,0.054
425.00,0.054
426.00,0.054
427.00,0.053
428.00,0.053
429.00,0.053
430.00,0.053
431.00,0.053
432.00,0.053
433.00,0.052
434.00,0.052
435.00,0.052
436.00,0.052
437.00,0.052
438.00,0.051
439.00,0.051
440.00,0.051
441.00,0.051
442.00,0.051
443.00,0.051
444.00,0.050
445.00,0.050
446.00,0.050
447.00,0.050
448.00,0.050
449.00,0.050
450.00,0.050
451.00,0.049
452.00,0.049
453.00,0.049
454.00,0.049
455.00,0.049
456.00,0.049
457.00,0.049
458.00,0.049
459.00,0.049
460.00,0.048
461.00,0.048
462.00,0.048
463.00,0.048
464.00,0.048
465.00,0.048
466.00,0.048
467.00,0.048
468.00,0.047
469.00,0.047
470.00,0.047
471.00,0.047
472.00,0.047
473.00,0.047
474.00,0.047
475.00,0.047
476.00,0.047
477.00,0.046
478.00,0.046
479.00,0.046
480.00,0.046
481.00,0.046
482.00,0.046
483.00,0.046
484.00,0.046
485.00,0.046
486.00,0.046
487.00,0.046
488.00,0.045
489.00,0.045
490.00,0.045
491.00,0.045
492.00,0.045
493.00,0.045
494.00,0.045
495.00,0.045
496.00,0.045
497.00,0.045
498.00,0.045
499.00,0.044
500.00,0.044
501.00,0.044
502.00,0.044
503.00,0.044
504.00,0.044
505.00,0.044
506.00,0.044
507.00,0.044
508.00,0.044
509.00,0.044
510.00,0.044
511.00,0.044
512.00,0.043
513.00,0.043
514.00,0.043
515.00,0.043
516.00,0.043
517.00,0.043
518.00,0.043
519.00,0.043
520.00,0.043
521.00,0.043
522.00,0.043
523.00,0.043
524.00,0.043
525.00,0.042
526.00,0.042
527.00,0.042
528.00,0.042
529.00,0.042
530.00,0.042
531.00,0.042
532.00,0.042
533.00,0.042
534.00,0.042
535.00,0.042
536.00,0.042
537.00,0.042
538.00,0.042
539.00,0.042
540.00,0.042
541.00,0.042
542.00,0.041
543.00,0.041
544.00,0.041
545.00,0.041
546.00,0.041
547.00,0.041
548.00,0.041
549.00,0.041
550.00,0.041
551.00,0.041
552.00,0.041
553.00,0.041
554.00,0.041
555.00,0.041
556.00,0.041
557.00,0.041
558.00,0.041
559.00,0.041
560.00,0.041
561.00,0.041
562.00,0.041
563.00,0.041
564.00,0.040
565.00,0.040
566.00,0.040
567.00,0.040
568.00,0.040
569.00,0.040
570.00,0.040
571.00,0.040
572.00,0.040
573.00,0.040
574.00,0.040
575.00,0.040
576.00,0.040
577.00,0.040
578.00,0.040
579.00,0.040
580.00,0.040
581.00,0.040
582.00,0.040
583.00,0.040
584.00,0.040
585.00,0.040
586.00,0.040
587.00,0.040
588.00,0.040
589.00,0.040
590.00,0.040
591.00,0.040
592.00,0.040
593.00,0.040
594.00,0.040
595.00,0.040
596.00,0.040
597.00,0.040
598.00,0.040
599.00,0.040
600.00,0.040
601.00,0.040
602.00,0.040
603.00,0.040
604.00,0.040
605.00,0.040
606.00,0.040
607.00,0.040
608.00,0.040
609.00,0.040
610.00,0.040
611.00,0.040
612.00,0.040
613.00,0.040
614.00,0.040
615.00,0.040
616.00,0.040
617.00,0.040
618.00,0.040
619.00,0.040
620.00,0.040
621.00,0.040
622.00,0.040
623.00,0.040
624.00,0.040
625.00,0.040
626.00,0.039
627.00,0.039
628.00,0.039
629.00,0.039
630.00,0.039
631.00,0.039
632.00,0.039
633.00,0.039
634.00,0.039
635.00,0.039
636.00,0.039
637.00,0.039
638.00,0.039
639.00,0.039
640.00,0.039
641.00,0.039
642.00,0.039
643.00,0.039
644.00,0.039
645.00,0.039
646.00,0.039
647.00,0.039
648.00,0.039
649.00,0.039
650.00,0.039
651.00,0.039
652.00,0.039
653.00,0.039
654.00,0.039
655.00,0.039
656.00,0.039
657.00,0.039
658.00,0.039
659.00,0.039
660.00,0.039
661.00,0.039
662.00,0.039
663.00,0.039
664.00,0.039
665.00,0.039
666.00,0.039
667.00,0.039
668.00,0.039
669.00,0.039
670.00,0.039
671.00,0.039
672.00,0.039
673.00,0.039
674.00,0.039
675.00,0.039
676.00,0.039
677.00,0.039
678.00,0.039
679.00,0.039
680.00,0.039
681.00,0.039
682.00,0.039
683.00,0.039
684.00,0.039
685.00,0.039
686.00,0.039
687.00,0.039
688.00,0.039
689.00,0.039
690.00,0.039
691.00,0.039
692.00,0.039
693.00,0.039
694.00,0.039
695.00,0.039
696.00,0.039
697.00,0.039
698.00,0.039
699.00,0.040
700.00,0.040
701.00,0.040
702.00,0.040
703.00,0.040
704.00,0.040
705.00,0.040
706.00,0.040
707.00,0.040
708.00,0.040
709.00,0.040
710.00,0.040
711.00,0.040
712.00,0.040
713.00,0.041
714.00,0.041
715.00,0.041
716.00,0.041
717.00,0.041
718.00,0.041
719.00,0.042
720.00,0.042
721.00,0.042
722.00,0.042
723.00,0.042
724.00,0.043
725.00,0.043
726.00,0.043
727.00,0.044
728.00,0.044
729.00,0.044
730.00,0.045
731.00,0.046
732.00,0.046
733.00,0.046
734.00,0.047
735.00,0.047
736.00,0.048
737.00,0.048
738.00,0.048
739.00,0.048
740.00,0.048
741.00,0.048
742.00,0.048
743.00,0.048
744.00,0.048
745.00,0.048
746.00,0.048
747.00,0.048
748.00,0.048
749.00,0.048
750.00,0.048
751.00,0.048
752.00,0.048
753.00,0.048
754.00,0.048
755.00,0.048
756.00,0.048
757.00,0.048
758.00,0.048
759.00,0.048
760.00,0.048
761.00,0.048
762.00,0.048
763.00,0.048
764.00,0.048
765.00,0.048
766.00,0.048
767.00,0.048
768.00,0.048
769.00,0.048
770.00,0.048
771.00,0.048
772.00,0.047
773.00,0.047
774.00,0.047
775.00,0.047
776.00,0.047
777.00,0.047
778.00,0.047
779.00,0.047
780.00,0.047
781.00,0.047
782.00,0.047
783.00,0.047
784.00,0.047
785.00,0.047
786.00,0.046
787.00,0.046
788.00,0.046
789.00,0.046
790.00,0.046
791.00,0.046
792.00,0.046
793.00,0.046
794.00,0.046
795.00,0.045
796.00,0.045
797.00,0.045
798.00,0.045
799.00,0.045
800.00,0.045
801.00,0.045
802.00,0.045
803.00,0.045
804.00,0.045
805.00,0.045
806.00,0.045
807.00,0.045
808.00,0.045
809.00,0.045
810.00,0.045
811.00,0.045
812.00,0.045
813.00,0.045
814.00,0.045
815.00,0.045
816.00,0.045
817.00,0.045
818.00,0.045
819.00,0.045
820.00,0.045
821.00,0.045
822.00,0.046
823.00,0.046
824.00,0.046
825.00,0.047
826.00,0.047
827.00,0.047
828.00,0.048
829.00,0.049
830.00,0.049
831.00,0.050
832.00,0.050
833.00,0.051
834.00,0.051
835.00,0.051
836.00,0.051
837.00,0.051
838.00,0.052
839.00,0.052
840.00,0.052
841.00,0.052
842.00,0.052
843.00,0.052
844.00,0.052
845.00,0.052
846.00,0.053
847.00,0.053
848.00,0.053
849.00,0.053
850.00,0.053
851.00,0.053
852.00,0.053
853.00,0.053
854.00,0.053
855.00,0.053
856.00,0.054
857.00,0.054
858.00,0.054
859.00,0.054
860.00,0.054
861.00,0.054
862.00,0.054
863.00,0.054
864.00,0.054
865.00,0.055
866.00,0.055
867.00,0.055
868.00,0.055
869.00,0.055
870.00,0.055
871.00,0.055
872.00,0.056
873.00,0.056
874.00,0.056
875.00,0.056
876.00,0.056
877.00,0.057
878.00,0.057
879.00,0.057
880.00,0.057
881.00,0.058
882.00,0.058
883.00,0.058
884.00,0.058
885.00,0.059
886.00,0.059
887.00,0.059
888.00,0.059
889.00,0.059
890.00,0.060
891.00,0.060
892.00,0.060
893.00,0.060
894.00,0.061
895.00,0.061
896.00,0.061
897.00,0.061
898.00,0.061
899.00,0.062
900.00,0.062
