"GrimoireArrmure_50x - RawData"
"Wavelength nm.","Abs."
190.00,3.032
191.00,3.717
192.00,3.698
193.00,3.682
194.00,3.842
195.00,3.917
196.00,3.995
197.00,3.960
198.00,3.917
199.00,3.845
200.00,3.840
201.00,3.798
202.00,3.874
203.00,3.967
204.00,3.923
205.00,3.832
206.00,3.759
207.00,3.996
208.00,3.860
209.00,3.849
210.00,3.886
211.00,3.584
212.00,3.631
213.00,3.401
214.00,3.349
215.00,3.181
216.00,3.115
217.00,2.955
218.00,2.835
219.00,2.707
220.00,2.571
221.00,2.470
222.00,2.361
223.00,2.254
224.00,2.154
225.00,2.051
226.00,1.951
227.00,1.850
228.00,1.753
229.00,1.665
230.00,1.582
231.00,1.504
232.00,1.434
233.00,1.370
234.00,1.315
235.00,1.268
236.00,1.226
237.00,1.191
238.00,1.162
239.00,1.137
240.00,1.118
241.00,1.103
242.00,1.093
243.00,1.087
244.00,1.085
245.00,1.084
246.00,1.086
247.00,1.089
248.00,1.093
249.00,1.098
250.00,1.103
251.00,1.110
252.00,1.116
253.00,1.123
254.00,1.130
255.00,1.137
256.00,1.144
257.00,1.149
258.00,1.153
259.00,1.155
260.00,1.157
261.00,1.159
262.00,1.161
263.00,1.164
264.00,1.166
265.00,1.168
266.00,1.169
267.00,1.169
268.00,1.167
269.00,1.165
270.00,1.160
271.00,1.155
272.00,1.148
273.00,1.140
274.00,1.131
275.00,1.120
276.00,1.108
277.00,1.093
278.00,1.077
279.00,1.060
280.00,1.041
281.00,1.023
282.00,1.003
283.00,0.982
284.00,0.960
285.00,0.935
286.00,0.912
287.00,0.889
288.00,0.864
289.00,0.840
290.00,0.814
291.00,0.789
292.00,0.766
293.00,0.746
294.00,0.728
295.00,0.710
296.00,0.694
297.00,0.679
298.00,0.665
299.00,0.650
300.00,0.638
301.00,0.625
302.00,0.614
303.00,0.603
304.00,0.593
305.00,0.584
306.00,0.574
307.00,0.565
308.00,0.556
309.00,0.548
310.00,0.540
311.00,0.532
312.00,0.525
313.00,0.518
314.00,0.511
315.00,0.504
316.00,0.498
317.00,0.491
318.00,0.484
319.00,0.477
320.00,0.470
321.00,0.463
322.00,0.456
323.00,0.449
324.00,0.442
325.00,0.434
326.00,0.427
327.00,0.420
328.00,0.412
329.00,0.404
330.00,0.397
331.00,0.389
332.00,0.382
333.00,0.375
334.00,0.367
335.00,0.359
336.00,0.353
337.00,0.346
338.00,0.338
339.00,0.331
340.00,0.325
341.00,0.317
342.00,0.310
343.00,0.303
344.00,0.297
345.00,0.291
346.00,0.285
347.00,0.280
348.00,0.274
349.00,0.268
350.00,0.263
351.00,0.257
352.00,0.252
353.00,0.247
354.00,0.242
355.00,0.238
356.00,0.233
357.00,0.229
358.00,0.224
359.00,0.220
360.00,0.216
361.00,0.211
362.00,0.208
363.00,0.204
364.00,0.201
365.00,0.198
366.00,0.194
367.00,0.191
368.00,0.188
369.00,0.185
370.00,0.182
371.00,0.179
372.00,0.176
373.00,0.174
374.00,0.171
375.00,0.168
376.00,0.166
377.00,0.164
378.00,0.161
379.00,0.159
380.00,0.157
381.00,0.154
382.00,0.152
383.00,0.150
384.00,0.148
385.00,0.147
386.00,0.145
387.00,0.143
388.00,0.141
389.00,0.140
390.00,0.138
391.00,0.137
392.00,0.135
393.00,0.133
394.00,0.132
395.00,0.131
396.00,0.129
397.00,0.128
398.00,0.127
399.00,0.126
400.00,0.124
401.00,0.123
402.00,0.122
403.00,0.121
404.00,0.120
405.00,0.119
406.00,0.118
407.00,0.116
408.00,0.115
409.00,0.114
410.00,0.113
411.00,0.112
412.00,0.112
413.00,0.111
414.00,0.110
415.00,0.109
416.00,0.108
417.00,0.107
418.00,0.106
419.00,0.106
420.00,0.105
421.00,0.104
422.00,0.103
423.00,0.102
424.00,0.102
425.00,0.101
426.00,0.100
427.00,0.099
428.00,0.099
429.00,0.098
430.00,0.097
431.00,0.097
432.00,0.096
433.00,0.095
434.00,0.095
435.00,0.094
436.00,0.093
437.00,0.093
438.00,0.092
439.00,0.092
440.00,0.091
441.00,0.090
442.00,0.090
443.00,0.089
444.00,0.089
445.00,0.088
446.00,0.088
447.00,0.087
448.00,0.087
449.00,0.086
450.00,0.086
451.00,0.085
452.00,0.085
453.00,0.084
454.00,0.084
455.00,0.083
456.00,0.083
457.00,0.082
458.00,0.082
459.00,0.081
460.00,0.081
461.00,0.081
462.00,0.080
463.00,0.080
464.00,0.079
465.00,0.079
466.00,0.079
467.00,0.078
468.00,0.078
469.00,0.077
470.00,0.077
471.00,0.077
472.00,0.076
473.00,0.076
474.00,0.075
475.00,0.075
476.00,0.075
477.00,0.074
478.00,0.074
479.00,0.074
480.00,0.073
481.00,0.073
482.00,0.072
483.00,0.072
484.00,0.072
485.00,0.071
486.00,0.071
487.00,0.071
488.00,0.070
489.00,0.070
490.00,0.070
491.00,0.069
492.00,0.069
493.00,0.069
494.00,0.069
495.00,0.068
496.00,0.068
497.00,0.068
498.00,0.067
499.00,0.067
500.00,0.067
501.00,0.067
502.00,0.066
503.00,0.066
504.00,0.066
505.00,0.066
506.00,0.065
507.00,0.065
508.00,0.065
509.00,0.065
510.00,0.064
511.00,0.064
512.00,0.064
513.00,0.064
514.00,0.063
515.00,0.063
516.00,0.063
517.00,0.063
518.00,0.063
519.00,0.062
520.00,0.062
521.00,0.062
522.00,0.062
523.00,0.061
524.00,0.061
525.00,0.061
526.00,0.061
527.00,0.061
528.00,0.060
529.00,0.060
530.00,0.060
531.00,0.060
532.00,0.060
533.00,0.059
534.00,0.059
535.00,0.059
536.00,0.059
537.00,0.059
538.00,0.059
539.00,0.058
540.00,0.058
541.00,0.058
542.00,0.058
543.00,0.058
544.00,0.057
545.00,0.057
546.00,0.057
547.00,0.057
548.00,0.057
549.00,0.057
550.00,0.057
551.00,0.057
552.00,0.056
553.00,0.056
554.00,0.056
555.00,0.056
556.00,0.056
557.00,0.056
558.00,0.056
559.00,0.055
560.00,0.055
561.00,0.055
562.00,0.055
563.00,0.055
564.00,0.055
565.00,0.055
566.00,0.055
567.00,0.054
568.00,0.054
569.00,0.054
570.00,0.054
571.00,0.054
572.00,0.054
573.00,0.054
574.00,0.053
575.00,0.053
576.00,0.053
577.00,0.053
578.00,0.053
579.00,0.053
580.00,0.053
581.00,0.053
582.00,0.053
583.00,0.053
584.00,0.052
585.00,0.052
586.00,0.052
587.00,0.052
588.00,0.052
589.00,0.052
590.00,0.052
591.00,0.052
592.00,0.052
593.00,0.052
594.00,0.052
595.00,0.052
596.00,0.052
597.00,0.052
598.00,0.052
599.00,0.051
600.00,0.051
601.00,0.051
602.00,0.051
603.00,0.051
604.00,0.051
605.00,0.051
606.00,0.051
607.00,0.051
608.00,0.051
609.00,0.051
610.00,0.051
611.00,0.051
612.00,0.051
613.00,0.050
614.00,0.050
615.00,0.050
616.00,0.050
617.00,0.050
618.00,0.050
619.00,0.050
620.00,0.050
621.00,0.050
622.00,0.050
623.00,0.050
624.00,0.050
625.00,0.050
626.00,0.050
627.00,0.049
628.00,0.049
629.00,0.049
630.00,0.049
631.00,0.049
632.00,0.049
633.00,0.049
634.00,0.049
635.00,0.049
636.00,0.049
637.00,0.049
638.00,0.049
639.00,0.049
640.00,0.049
641.00,0.048
642.00,0.048
643.00,0.048
644.00,0.048
645.00,0.048
646.00,0.048
647.00,0.048
648.00,0.048
649.00,0.048
650.00,0.048
651.00,0.048
652.00,0.048
653.00,0.048
654.00,0.048
655.00,0.048
656.00,0.048
657.00,0.048
658.00,0.048
659.00,0.048
660.00,0.048
661.00,0.048
662.00,0.048
663.00,0.048
664.00,0.048
665.00,0.047
666.00,0.047
667.00,0.047
668.00,0.047
669.00,0.047
670.00,0.047
671.00,0.047
672.00,0.047
673.00,0.047
674.00,0.047
675.00,0.047
676.00,0.047
677.00,0.047
678.00,0.047
679.00,0.047
680.00,0.047
681.00,0.047
682.00,0.047
683.00,0.047
684.00,0.047
685.00,0.047
686.00,0.047
687.00,0.047
688.00,0.047
689.00,0.047
690.00,0.047
691.00,0.047
692.00,0.047
693.00,0.046
694.00,0.046
695.00,0.047
696.00,0.047
697.00,0.046
698.00,0.046
699.00,0.046
700.00,0.047
701.00,0.047
702.00,0.047
703.00,0.047
704.00,0.047
705.00,0.047
706.00,0.047
707.00,0.047
708.00,0.047
709.00,0.047
710.00,0.047
711.00,0.047
712.00,0.047
713.00,0.047
714.00,0.047
715.00,0.047
716.00,0.048
717.00,0.048
718.00,0.048
719.00,0.048
720.00,0.048
721.00,0.049
722.00,0.049
723.00,0.049
724.00,0.049
725.00,0.049
726.00,0.050
727.00,0.050
728.00,0.050
729.00,0.051
730.00,0.051
731.00,0.052
732.00,0.052
733.00,0.053
734.00,0.053
735.00,0.053
736.00,0.053
737.00,0.054
738.00,0.054
739.00,0.054
740.00,0.054
741.00,0.054
742.00,0.054
743.00,0.054
744.00,0.054
745.00,0.054
746.00,0.054
747.00,0.054
748.00,0.054
749.00,0.054
750.00,0.054
751.00,0.054
752.00,0.054
753.00,0.054
754.00,0.054
755.00,0.054
756.00,0.054
757.00,0.054
758.00,0.054
759.00,0.054
760.00,0.054
761.00,0.054
762.00,0.054
763.00,0.054
764.00,0.054
765.00,0.054
766.00,0.053
767.00,0.053
768.00,0.053
769.00,0.053
770.00,0.053
771.00,0.053
772.00,0.053
773.00,0.053
774.00,0.053
775.00,0.053
776.00,0.053
777.00,0.053
778.00,0.052
779.00,0.052
780.00,0.052
781.00,0.052
782.00,0.052
783.00,0.052
784.00,0.052
785.00,0.052
786.00,0.052
787.00,0.051
788.00,0.051
789.00,0.051
790.00,0.051
791.00,0.051
792.00,0.051
793.00,0.051
794.00,0.051
795.00,0.050
796.00,0.050
797.00,0.050
798.00,0.050
799.00,0.050
800.00,0.050
801.00,0.050
802.00,0.050
803.00,0.050
804.00,0.050
805.00,0.050
806.00,0.050
807.00,0.050
808.00,0.050
809.00,0.049
810.00,0.049
811.00,0.049
812.00,0.050
813.00,0.050
814.00,0.050
815.00,0.050
816.00,0.050
817.00,0.050
818.00,0.050
819.00,0.050
820.00,0.050
821.00,0.050
822.00,0.050
823.00,0.051
824.00,0.051
825.00,0.051
826.00,0.052
827.00,0.052
828.00,0.053
829.00,0.053
830.00,0.054
831.00,0.054
832.00,0.055
833.00,0.055
834.00,0.056
835.00,0.056
836.00,0.056
837.00,0.056
838.00,0.056
839.00,0.056
840.00,0.057
841.00,0.057
842.00,0.057
843.00,0.057
844.00,0.057
845.00,0.057
846.00,0.057
847.00,0.057
848.00,0.057
849.00,0.057
850.00,0.058
851.00,0.058
852.00,0.058
853.00,0.058
854.00,0.058
855.00,0.058
856.00,0.058
857.00,0.058
858.00,0.059
859.00,0.059
860.00,0.059
861.00,0.059
862.00,0.059
863.00,0.059
864.00,0.059
865.00,0.059
866.00,0.059
867.00,0.060
868.00,0.060
869.00,0.060
870.00,0.060
871.00,0.060
872.00,0.060
873.00,0.060
874.00,0.061
875.00,0.061
876.00,0.061
877.00,0.061
878.00,0.061
879.00,0.062
880.00,0.062
881.00,0.062
882.00,0.062
883.00,0.063
884.00,0.063
885.00,0.063
886.00,0.063
887.00,0.064
888.00,0.064
889.00,0.064
890.00,0.064
891.00,0.064
892.00,0.065
893.00,0.065
894.00,0.065
895.00,0.065
896.00,0.066
897.00,0.066
898.00,0.066
899.00,0.066
900.00,0.066
