"HelmNutelisBlondi50x - RawData"
"Wavelength nm.","Abs."
190.00,3.690
191.00,3.550
192.00,3.766
193.00,3.902
194.00,3.654
195.00,3.931
196.00,3.930
197.00,3.826
198.00,3.917
199.00,3.741
200.00,3.846
201.00,3.869
202.00,3.944
203.00,3.957
204.00,3.936
205.00,3.961
206.00,3.994
207.00,3.974
208.00,3.831
209.00,3.982
210.00,3.964
211.00,3.858
212.00,3.762
213.00,3.633
214.00,3.481
215.00,3.398
216.00,3.211
217.00,3.059
218.00,2.916
219.00,2.768
220.00,2.654
221.00,2.537
222.00,2.431
223.00,2.315
224.00,2.200
225.00,2.090
226.00,1.980
227.00,1.869
228.00,1.762
229.00,1.668
230.00,1.578
231.00,1.499
232.00,1.430
233.00,1.367
234.00,1.313
235.00,1.267
236.00,1.228
237.00,1.195
238.00,1.169
239.00,1.147
240.00,1.131
241.00,1.119
242.00,1.111
243.00,1.106
244.00,1.104
245.00,1.104
246.00,1.106
247.00,1.110
248.00,1.115
249.00,1.121
250.00,1.127
251.00,1.135
252.00,1.144
253.00,1.153
254.00,1.161
255.00,1.170
256.00,1.177
257.00,1.183
258.00,1.187
259.00,1.190
260.00,1.191
261.00,1.192
262.00,1.193
263.00,1.194
264.00,1.194
265.00,1.192
266.00,1.189
267.00,1.187
268.00,1.183
269.00,1.176
270.00,1.167
271.00,1.155
272.00,1.141
273.00,1.125
274.00,1.108
275.00,1.089
276.00,1.069
277.00,1.048
278.00,1.025
279.00,1.000
280.00,0.976
281.00,0.950
282.00,0.922
283.00,0.891
284.00,0.861
285.00,0.829
286.00,0.798
287.00,0.768
288.00,0.737
289.00,0.706
290.00,0.673
291.00,0.642
292.00,0.615
293.00,0.590
294.00,0.570
295.00,0.552
296.00,0.536
297.00,0.523
298.00,0.510
299.00,0.499
300.00,0.489
301.00,0.480
302.00,0.472
303.00,0.465
304.00,0.459
305.00,0.454
306.00,0.448
307.00,0.443
308.00,0.438
309.00,0.435
310.00,0.431
311.00,0.427
312.00,0.423
313.00,0.420
314.00,0.417
315.00,0.414
316.00,0.411
317.00,0.408
318.00,0.405
319.00,0.401
320.00,0.397
321.00,0.394
322.00,0.390
323.00,0.386
324.00,0.381
325.00,0.376
326.00,0.371
327.00,0.366
328.00,0.361
329.00,0.355
330.00,0.349
331.00,0.344
332.00,0.338
333.00,0.332
334.00,0.326
335.00,0.320
336.00,0.314
337.00,0.308
338.00,0.301
339.00,0.295
340.00,0.289
341.00,0.283
342.00,0.277
343.00,0.271
344.00,0.265
345.00,0.259
346.00,0.253
347.00,0.248
348.00,0.243
349.00,0.237
350.00,0.232
351.00,0.227
352.00,0.222
353.00,0.217
354.00,0.213
355.00,0.209
356.00,0.204
357.00,0.200
358.00,0.196
359.00,0.192
360.00,0.188
361.00,0.185
362.00,0.181
363.00,0.178
364.00,0.175
365.00,0.172
366.00,0.169
367.00,0.166
368.00,0.164
369.00,0.161
370.00,0.158
371.00,0.156
372.00,0.153
373.00,0.151
374.00,0.149
375.00,0.147
376.00,0.144
377.00,0.142
378.00,0.140
379.00,0.138
380.00,0.136
381.00,0.134
382.00,0.132
383.00,0.131
384.00,0.129
385.00,0.127
386.00,0.126
387.00,0.124
388.00,0.123
389.00,0.121
390.00,0.120
391.00,0.119
392.00,0.117
393.00,0.116
394.00,0.115
395.00,0.114
396.00,0.113
397.00,0.112
398.00,0.111
399.00,0.110
400.00,0.109
401.00,0.108
402.00,0.107
403.00,0.106
404.00,0.105
405.00,0.105
406.00,0.104
407.00,0.103
408.00,0.103
409.00,0.102
410.00,0.101
411.00,0.101
412.00,0.100
413.00,0.100
414.00,0.099
415.00,0.099
416.00,0.098
417.00,0.098
418.00,0.097
419.00,0.097
420.00,0.097
421.00,0.096
422.00,0.096
423.00,0.096
424.00,0.095
425.00,0.095
426.00,0.094
427.00,0.094
428.00,0.094
429.00,0.094
430.00,0.093
431.00,0.093
432.00,0.093
433.00,0.092
434.00,0.092
435.00,0.092
436.00,0.092
437.00,0.091
438.00,0.091
439.00,0.091
440.00,0.091
441.00,0.091
442.00,0.090
443.00,0.090
444.00,0.090
445.00,0.090
446.00,0.090
447.00,0.089
448.00,0.089
449.00,0.089
450.00,0.089
451.00,0.089
452.00,0.088
453.00,0.088
454.00,0.088
455.00,0.088
456.00,0.088
457.00,0.088
458.00,0.088
459.00,0.087
460.00,0.087
461.00,0.087
462.00,0.087
463.00,0.087
464.00,0.087
465.00,0.087
466.00,0.086
467.00,0.086
468.00,0.086
469.00,0.086
470.00,0.086
471.00,0.086
472.00,0.086
473.00,0.085
474.00,0.085
475.00,0.085
476.00,0.085
477.00,0.085
478.00,0.085
479.00,0.085
480.00,0.084
481.00,0.084
482.00,0.084
483.00,0.084
484.00,0.084
485.00,0.084
486.00,0.084
487.00,0.084
488.00,0.084
489.00,0.084
490.00,0.083
491.00,0.083
492.00,0.083
493.00,0.083
494.00,0.083
495.00,0.083
496.00,0.083
497.00,0.083
498.00,0.083
499.00,0.083
500.00,0.082
501.00,0.082
502.00,0.082
503.00,0.082
504.00,0.082
505.00,0.082
506.00,0.082
507.00,0.082
508.00,0.082
509.00,0.082
510.00,0.082
511.00,0.081
512.00,0.081
513.00,0.081
514.00,0.081
515.00,0.081
516.00,0.081
517.00,0.081
518.00,0.081
519.00,0.081
520.00,0.081
521.00,0.081
522.00,0.081
523.00,0.081
524.00,0.080
525.00,0.080
526.00,0.080
527.00,0.080
528.00,0.080
529.00,0.080
530.00,0.080
531.00,0.080
532.00,0.080
533.00,0.080
534.00,0.080
535.00,0.080
536.00,0.080
537.00,0.080
538.00,0.079
539.00,0.079
540.00,0.079
541.00,0.079
542.00,0.079
543.00,0.079
544.00,0.079
545.00,0.079
546.00,0.079
547.00,0.079
548.00,0.079
549.00,0.079
550.00,0.079
551.00,0.079
552.00,0.079
553.00,0.079
554.00,0.079
555.00,0.078
556.00,0.078
557.00,0.078
558.00,0.078
559.00,0.078
560.00,0.078
561.00,0.078
562.00,0.078
563.00,0.078
564.00,0.078
565.00,0.078
566.00,0.078
567.00,0.078
568.00,0.078
569.00,0.078
570.00,0.078
571.00,0.077
572.00,0.077
573.00,0.077
574.00,0.077
575.00,0.077
576.00,0.077
577.00,0.077
578.00,0.077
579.00,0.077
580.00,0.077
581.00,0.077
582.00,0.077
583.00,0.077
584.00,0.077
585.00,0.077
586.00,0.077
587.00,0.077
588.00,0.077
589.00,0.077
590.00,0.077
591.00,0.077
592.00,0.077
593.00,0.077
594.00,0.077
595.00,0.077
596.00,0.077
597.00,0.076
598.00,0.077
599.00,0.076
600.00,0.076
601.00,0.076
602.00,0.077
603.00,0.076
604.00,0.076
605.00,0.076
606.00,0.076
607.00,0.076
608.00,0.076
609.00,0.076
610.00,0.076
611.00,0.076
612.00,0.076
613.00,0.076
614.00,0.076
615.00,0.076
616.00,0.076
617.00,0.076
618.00,0.076
619.00,0.076
620.00,0.076
621.00,0.076
622.00,0.076
623.00,0.076
624.00,0.076
625.00,0.076
626.00,0.076
627.00,0.076
628.00,0.076
629.00,0.076
630.00,0.075
631.00,0.075
632.00,0.075
633.00,0.075
634.00,0.075
635.00,0.075
636.00,0.075
637.00,0.075
638.00,0.075
639.00,0.075
640.00,0.075
641.00,0.075
642.00,0.075
643.00,0.075
644.00,0.075
645.00,0.075
646.00,0.075
647.00,0.075
648.00,0.075
649.00,0.075
650.00,0.075
651.00,0.075
652.00,0.075
653.00,0.075
654.00,0.075
655.00,0.075
656.00,0.075
657.00,0.075
658.00,0.075
659.00,0.075
660.00,0.075
661.00,0.075
662.00,0.075
663.00,0.075
664.00,0.075
665.00,0.075
666.00,0.075
667.00,0.075
668.00,0.075
669.00,0.075
670.00,0.075
671.00,0.074
672.00,0.075
673.00,0.074
674.00,0.074
675.00,0.074
676.00,0.074
677.00,0.074
678.00,0.074
679.00,0.074
680.00,0.074
681.00,0.074
682.00,0.074
683.00,0.074
684.00,0.074
685.00,0.074
686.00,0.074
687.00,0.074
688.00,0.074
689.00,0.074
690.00,0.074
691.00,0.074
692.00,0.074
693.00,0.074
694.00,0.074
695.00,0.074
696.00,0.074
697.00,0.074
698.00,0.074
699.00,0.074
700.00,0.074
701.00,0.074
702.00,0.074
703.00,0.075
704.00,0.075
705.00,0.075
706.00,0.075
707.00,0.075
708.00,0.075
709.00,0.075
710.00,0.075
711.00,0.075
712.00,0.075
713.00,0.075
714.00,0.076
715.00,0.076
716.00,0.076
717.00,0.076
718.00,0.076
719.00,0.076
720.00,0.076
721.00,0.077
722.00,0.077
723.00,0.077
724.00,0.077
725.00,0.078
726.00,0.078
727.00,0.078
728.00,0.078
729.00,0.079
730.00,0.079
731.00,0.080
732.00,0.080
733.00,0.081
734.00,0.081
735.00,0.082
736.00,0.082
737.00,0.082
738.00,0.082
739.00,0.082
740.00,0.082
741.00,0.082
742.00,0.082
743.00,0.082
744.00,0.082
745.00,0.082
746.00,0.082
747.00,0.082
748.00,0.082
749.00,0.082
750.00,0.082
751.00,0.082
752.00,0.082
753.00,0.082
754.00,0.082
755.00,0.082
756.00,0.082
757.00,0.082
758.00,0.082
759.00,0.082
760.00,0.083
761.00,0.082
762.00,0.082
763.00,0.082
764.00,0.082
765.00,0.082
766.00,0.082
767.00,0.082
768.00,0.082
769.00,0.082
770.00,0.082
771.00,0.082
772.00,0.082
773.00,0.081
774.00,0.081
775.00,0.081
776.00,0.081
777.00,0.081
778.00,0.081
779.00,0.081
780.00,0.081
781.00,0.081
782.00,0.081
783.00,0.081
784.00,0.080
785.00,0.080
786.00,0.080
787.00,0.080
788.00,0.080
789.00,0.080
790.00,0.080
791.00,0.080
792.00,0.079
793.00,0.079
794.00,0.079
795.00,0.079
796.00,0.079
797.00,0.079
798.00,0.079
799.00,0.079
800.00,0.079
801.00,0.079
802.00,0.079
803.00,0.079
804.00,0.079
805.00,0.079
806.00,0.079
807.00,0.079
808.00,0.079
809.00,0.078
810.00,0.079
811.00,0.079
812.00,0.079
813.00,0.079
814.00,0.079
815.00,0.079
816.00,0.079
817.00,0.079
818.00,0.079
819.00,0.079
820.00,0.079
821.00,0.079
822.00,0.079
823.00,0.080
824.00,0.080
825.00,0.080
826.00,0.081
827.00,0.081
828.00,0.082
829.00,0.082
830.00,0.083
831.00,0.083
832.00,0.084
833.00,0.084
834.00,0.085
835.00,0.085
836.00,0.085
837.00,0.085
838.00,0.085
839.00,0.085
840.00,0.086
841.00,0.086
842.00,0.086
843.00,0.086
844.00,0.086
845.00,0.086
846.00,0.086
847.00,0.086
848.00,0.086
849.00,0.087
850.00,0.087
851.00,0.087
852.00,0.087
853.00,0.087
854.00,0.087
855.00,0.087
856.00,0.087
857.00,0.087
858.00,0.087
859.00,0.088
860.00,0.088
861.00,0.088
862.00,0.088
863.00,0.088
864.00,0.088
865.00,0.088
866.00,0.088
867.00,0.089
868.00,0.089
869.00,0.089
870.00,0.089
871.00,0.089
872.00,0.089
873.00,0.089
874.00,0.090
875.00,0.090
876.00,0.090
877.00,0.090
878.00,0.090
879.00,0.091
880.00,0.091
881.00,0.091
882.00,0.092
883.00,0.092
884.00,0.092
885.00,0.092
886.00,0.092
887.00,0.093
888.00,0.093
889.00,0.093
890.00,0.093
891.00,0.093
892.00,0.094
893.00,0.094
894.00,0.094
895.00,0.095
896.00,0.095
897.00,0.095
898.00,0.095
899.00,0.095
900.00,0.096
