"HelmHutchiblanco_50x - RawData"
"Wavelength nm.","Abs."
190.00,2.553
191.00,2.784
192.00,3.037
193.00,3.090
194.00,3.044
195.00,3.101
196.00,3.249
197.00,3.396
198.00,3.246
199.00,3.243
200.00,3.235
201.00,3.470
202.00,3.503
203.00,3.405
204.00,3.351
205.00,3.374
206.00,3.407
207.00,3.257
208.00,3.266
209.00,3.172
210.00,3.068
211.00,2.976
212.00,2.880
213.00,2.743
214.00,2.650
215.00,2.540
216.00,2.431
217.00,2.320
218.00,2.212
219.00,2.108
220.00,1.998
221.00,1.903
222.00,1.811
223.00,1.721
224.00,1.630
225.00,1.543
226.00,1.457
227.00,1.370
228.00,1.286
229.00,1.211
230.00,1.142
231.00,1.081
232.00,1.028
233.00,0.981
234.00,0.941
235.00,0.907
236.00,0.879
237.00,0.855
238.00,0.836
239.00,0.822
240.00,0.812
241.00,0.804
242.00,0.800
243.00,0.799
244.00,0.799
245.00,0.801
246.00,0.804
247.00,0.808
248.00,0.814
249.00,0.820
250.00,0.826
251.00,0.833
252.00,0.840
253.00,0.846
254.00,0.852
255.00,0.858
256.00,0.863
257.00,0.867
258.00,0.868
259.00,0.868
260.00,0.867
261.00,0.866
262.00,0.865
263.00,0.864
264.00,0.862
265.00,0.859
266.00,0.856
267.00,0.850
268.00,0.844
269.00,0.835
270.00,0.826
271.00,0.815
272.00,0.803
273.00,0.790
274.00,0.776
275.00,0.761
276.00,0.746
277.00,0.730
278.00,0.712
279.00,0.693
280.00,0.675
281.00,0.656
282.00,0.635
283.00,0.614
284.00,0.593
285.00,0.570
286.00,0.550
287.00,0.529
288.00,0.508
289.00,0.486
290.00,0.463
291.00,0.441
292.00,0.422
293.00,0.405
294.00,0.391
295.00,0.378
296.00,0.367
297.00,0.357
298.00,0.348
299.00,0.340
300.00,0.334
301.00,0.328
302.00,0.322
303.00,0.318
304.00,0.314
305.00,0.310
306.00,0.307
307.00,0.303
308.00,0.301
309.00,0.298
310.00,0.296
311.00,0.294
312.00,0.292
313.00,0.290
314.00,0.288
315.00,0.286
316.00,0.284
317.00,0.282
318.00,0.280
319.00,0.278
320.00,0.276
321.00,0.273
322.00,0.270
323.00,0.268
324.00,0.265
325.00,0.262
326.00,0.258
327.00,0.255
328.00,0.252
329.00,0.248
330.00,0.244
331.00,0.240
332.00,0.236
333.00,0.231
334.00,0.227
335.00,0.223
336.00,0.219
337.00,0.215
338.00,0.210
339.00,0.206
340.00,0.202
341.00,0.196
342.00,0.192
343.00,0.187
344.00,0.183
345.00,0.179
346.00,0.175
347.00,0.171
348.00,0.167
349.00,0.163
350.00,0.159
351.00,0.155
352.00,0.151
353.00,0.148
354.00,0.145
355.00,0.142
356.00,0.138
357.00,0.135
358.00,0.132
359.00,0.129
360.00,0.126
361.00,0.123
362.00,0.121
363.00,0.118
364.00,0.116
365.00,0.114
366.00,0.112
367.00,0.110
368.00,0.107
369.00,0.105
370.00,0.103
371.00,0.101
372.00,0.100
373.00,0.098
374.00,0.096
375.00,0.094
376.00,0.093
377.00,0.091
378.00,0.089
379.00,0.088
380.00,0.086
381.00,0.085
382.00,0.084
383.00,0.082
384.00,0.081
385.00,0.080
386.00,0.079
387.00,0.078
388.00,0.077
389.00,0.076
390.00,0.075
391.00,0.074
392.00,0.073
393.00,0.072
394.00,0.071
395.00,0.070
396.00,0.070
397.00,0.069
398.00,0.068
399.00,0.068
400.00,0.067
401.00,0.066
402.00,0.066
403.00,0.065
404.00,0.065
405.00,0.064
406.00,0.064
407.00,0.063
408.00,0.063
409.00,0.062
410.00,0.062
411.00,0.062
412.00,0.061
413.00,0.061
414.00,0.061
415.00,0.060
416.00,0.060
417.00,0.060
418.00,0.060
419.00,0.059
420.00,0.059
421.00,0.059
422.00,0.059
423.00,0.058
424.00,0.058
425.00,0.058
426.00,0.058
427.00,0.058
428.00,0.057
429.00,0.057
430.00,0.057
431.00,0.057
432.00,0.057
433.00,0.057
434.00,0.056
435.00,0.056
436.00,0.056
437.00,0.056
438.00,0.056
439.00,0.056
440.00,0.056
441.00,0.055
442.00,0.055
443.00,0.055
444.00,0.055
445.00,0.055
446.00,0.055
447.00,0.055
448.00,0.055
449.00,0.055
450.00,0.054
451.00,0.054
452.00,0.054
453.00,0.054
454.00,0.054
455.00,0.054
456.00,0.054
457.00,0.054
458.00,0.054
459.00,0.054
460.00,0.054
461.00,0.054
462.00,0.053
463.00,0.053
464.00,0.053
465.00,0.053
466.00,0.053
467.00,0.053
468.00,0.053
469.00,0.053
470.00,0.053
471.00,0.053
472.00,0.053
473.00,0.053
474.00,0.052
475.00,0.052
476.00,0.052
477.00,0.052
478.00,0.052
479.00,0.052
480.00,0.052
481.00,0.052
482.00,0.052
483.00,0.052
484.00,0.052
485.00,0.052
486.00,0.052
487.00,0.051
488.00,0.051
489.00,0.051
490.00,0.051
491.00,0.051
492.00,0.051
493.00,0.051
494.00,0.051
495.00,0.051
496.00,0.051
497.00,0.051
498.00,0.051
499.00,0.051
500.00,0.051
501.00,0.051
502.00,0.051
503.00,0.050
504.00,0.050
505.00,0.050
506.00,0.050
507.00,0.050
508.00,0.050
509.00,0.050
510.00,0.050
511.00,0.050
512.00,0.050
513.00,0.050
514.00,0.050
515.00,0.050
516.00,0.050
517.00,0.050
518.00,0.050
519.00,0.050
520.00,0.050
521.00,0.050
522.00,0.049
523.00,0.049
524.00,0.049
525.00,0.049
526.00,0.049
527.00,0.049
528.00,0.049
529.00,0.049
530.00,0.049
531.00,0.049
532.00,0.049
533.00,0.049
534.00,0.049
535.00,0.049
536.00,0.049
537.00,0.049
538.00,0.049
539.00,0.048
540.00,0.048
541.00,0.048
542.00,0.048
543.00,0.048
544.00,0.048
545.00,0.048
546.00,0.048
547.00,0.048
548.00,0.048
549.00,0.048
550.00,0.048
551.00,0.048
552.00,0.048
553.00,0.048
554.00,0.048
555.00,0.048
556.00,0.048
557.00,0.048
558.00,0.048
559.00,0.048
560.00,0.048
561.00,0.048
562.00,0.048
563.00,0.048
564.00,0.048
565.00,0.047
566.00,0.047
567.00,0.047
568.00,0.047
569.00,0.047
570.00,0.047
571.00,0.047
572.00,0.047
573.00,0.047
574.00,0.047
575.00,0.047
576.00,0.047
577.00,0.047
578.00,0.047
579.00,0.047
580.00,0.047
581.00,0.047
582.00,0.047
583.00,0.047
584.00,0.047
585.00,0.047
586.00,0.047
587.00,0.047
588.00,0.047
589.00,0.047
590.00,0.047
591.00,0.047
592.00,0.047
593.00,0.047
594.00,0.047
595.00,0.047
596.00,0.047
597.00,0.047
598.00,0.047
599.00,0.047
600.00,0.047
601.00,0.047
602.00,0.047
603.00,0.047
604.00,0.047
605.00,0.047
606.00,0.047
607.00,0.047
608.00,0.046
609.00,0.046
610.00,0.046
611.00,0.046
612.00,0.046
613.00,0.046
614.00,0.046
615.00,0.046
616.00,0.046
617.00,0.046
618.00,0.046
619.00,0.046
620.00,0.046
621.00,0.046
622.00,0.046
623.00,0.046
624.00,0.046
625.00,0.046
626.00,0.046
627.00,0.046
628.00,0.046
629.00,0.046
630.00,0.046
631.00,0.046
632.00,0.046
633.00,0.046
634.00,0.046
635.00,0.046
636.00,0.046
637.00,0.046
638.00,0.046
639.00,0.046
640.00,0.046
641.00,0.046
642.00,0.046
643.00,0.046
644.00,0.046
645.00,0.046
646.00,0.046
647.00,0.046
648.00,0.046
649.00,0.046
650.00,0.046
651.00,0.046
652.00,0.046
653.00,0.046
654.00,0.046
655.00,0.046
656.00,0.046
657.00,0.046
658.00,0.046
659.00,0.046
660.00,0.046
661.00,0.046
662.00,0.046
663.00,0.046
664.00,0.046
665.00,0.045
666.00,0.045
667.00,0.045
668.00,0.045
669.00,0.045
670.00,0.045
671.00,0.045
672.00,0.045
673.00,0.045
674.00,0.045
675.00,0.045
676.00,0.045
677.00,0.045
678.00,0.045
679.00,0.045
680.00,0.045
681.00,0.045
682.00,0.045
683.00,0.045
684.00,0.045
685.00,0.045
686.00,0.045
687.00,0.045
688.00,0.045
689.00,0.045
690.00,0.045
691.00,0.045
692.00,0.045
693.00,0.045
694.00,0.045
695.00,0.045
696.00,0.045
697.00,0.045
698.00,0.045
699.00,0.045
700.00,0.045
701.00,0.045
702.00,0.046
703.00,0.046
704.00,0.046
705.00,0.046
706.00,0.046
707.00,0.046
708.00,0.046
709.00,0.046
710.00,0.046
711.00,0.046
712.00,0.046
713.00,0.046
714.00,0.047
715.00,0.047
716.00,0.047
717.00,0.047
718.00,0.047
719.00,0.047
720.00,0.048
721.00,0.048
722.00,0.048
723.00,0.048
724.00,0.048
725.00,0.049
726.00,0.049
727.00,0.049
728.00,0.050
729.00,0.050
730.00,0.051
731.00,0.051
732.00,0.052
733.00,0.052
734.00,0.052
735.00,0.053
736.00,0.053
737.00,0.053
738.00,0.054
739.00,0.054
740.00,0.054
741.00,0.054
742.00,0.054
743.00,0.054
744.00,0.054
745.00,0.054
746.00,0.054
747.00,0.054
748.00,0.054
749.00,0.054
750.00,0.054
751.00,0.054
752.00,0.054
753.00,0.054
754.00,0.054
755.00,0.054
756.00,0.054
757.00,0.054
758.00,0.054
759.00,0.053
760.00,0.054
761.00,0.054
762.00,0.053
763.00,0.053
764.00,0.053
765.00,0.053
766.00,0.053
767.00,0.053
768.00,0.053
769.00,0.053
770.00,0.053
771.00,0.053
772.00,0.053
773.00,0.053
774.00,0.053
775.00,0.053
776.00,0.052
777.00,0.052
778.00,0.052
779.00,0.052
780.00,0.052
781.00,0.052
782.00,0.052
783.00,0.052
784.00,0.052
785.00,0.052
786.00,0.051
787.00,0.051
788.00,0.051
789.00,0.051
790.00,0.051
791.00,0.051
792.00,0.051
793.00,0.051
794.00,0.051
795.00,0.050
796.00,0.050
797.00,0.050
798.00,0.050
799.00,0.050
800.00,0.050
801.00,0.050
802.00,0.050
803.00,0.050
804.00,0.050
805.00,0.050
806.00,0.050
807.00,0.050
808.00,0.050
809.00,0.050
810.00,0.050
811.00,0.050
812.00,0.050
813.00,0.050
814.00,0.050
815.00,0.050
816.00,0.050
817.00,0.050
818.00,0.050
819.00,0.050
820.00,0.050
821.00,0.050
822.00,0.051
823.00,0.051
824.00,0.051
825.00,0.052
826.00,0.052
827.00,0.052
828.00,0.053
829.00,0.054
830.00,0.054
831.00,0.055
832.00,0.055
833.00,0.056
834.00,0.056
835.00,0.056
836.00,0.056
837.00,0.057
838.00,0.057
839.00,0.057
840.00,0.057
841.00,0.057
842.00,0.057
843.00,0.057
844.00,0.057
845.00,0.057
846.00,0.058
847.00,0.058
848.00,0.058
849.00,0.058
850.00,0.058
851.00,0.058
852.00,0.058
853.00,0.058
854.00,0.058
855.00,0.058
856.00,0.059
857.00,0.059
858.00,0.059
859.00,0.059
860.00,0.059
861.00,0.059
862.00,0.059
863.00,0.059
864.00,0.059
865.00,0.059
866.00,0.060
867.00,0.060
868.00,0.060
869.00,0.060
870.00,0.060
871.00,0.060
872.00,0.060
873.00,0.061
874.00,0.061
875.00,0.061
876.00,0.061
877.00,0.061
878.00,0.062
879.00,0.062
880.00,0.062
881.00,0.062
882.00,0.062
883.00,0.063
884.00,0.063
885.00,0.063
886.00,0.063
887.00,0.064
888.00,0.064
889.00,0.064
890.00,0.064
891.00,0.064
892.00,0.065
893.00,0.065
894.00,0.065
895.00,0.065
896.00,0.066
897.00,0.066
898.00,0.066
899.00,0.066
900.00,0.066
