"HelmMildThing_100x - RawData"
"Wavelength nm.","Abs."
190.00,2.096
191.00,2.084
192.00,2.073
193.00,2.031
194.00,1.966
195.00,1.931
196.00,1.871
197.00,1.820
198.00,1.757
199.00,1.704
200.00,1.649
201.00,1.592
202.00,1.537
203.00,1.485
204.00,1.433
205.00,1.380
206.00,1.331
207.00,1.284
208.00,1.237
209.00,1.191
210.00,1.149
211.00,1.108
212.00,1.069
213.00,1.031
214.00,0.993
215.00,0.958
216.00,0.924
217.00,0.890
218.00,0.858
219.00,0.826
220.00,0.796
221.00,0.769
222.00,0.742
223.00,0.716
224.00,0.691
225.00,0.667
226.00,0.644
227.00,0.620
228.00,0.597
229.00,0.575
230.00,0.553
231.00,0.534
232.00,0.515
233.00,0.498
234.00,0.482
235.00,0.468
236.00,0.455
237.00,0.443
238.00,0.431
239.00,0.421
240.00,0.411
241.00,0.403
242.00,0.396
243.00,0.390
244.00,0.385
245.00,0.380
246.00,0.377
247.00,0.374
248.00,0.371
249.00,0.369
250.00,0.368
251.00,0.367
252.00,0.367
253.00,0.367
254.00,0.367
255.00,0.367
256.00,0.367
257.00,0.368
258.00,0.368
259.00,0.368
260.00,0.368
261.00,0.368
262.00,0.368
263.00,0.369
264.00,0.369
265.00,0.369
266.00,0.369
267.00,0.369
268.00,0.369
269.00,0.369
270.00,0.368
271.00,0.367
272.00,0.366
273.00,0.364
274.00,0.362
275.00,0.360
276.00,0.357
277.00,0.354
278.00,0.350
279.00,0.346
280.00,0.343
281.00,0.338
282.00,0.333
283.00,0.328
284.00,0.322
285.00,0.316
286.00,0.310
287.00,0.304
288.00,0.297
289.00,0.290
290.00,0.283
291.00,0.276
292.00,0.269
293.00,0.264
294.00,0.258
295.00,0.253
296.00,0.249
297.00,0.245
298.00,0.241
299.00,0.237
300.00,0.233
301.00,0.230
302.00,0.227
303.00,0.224
304.00,0.221
305.00,0.218
306.00,0.216
307.00,0.213
308.00,0.211
309.00,0.208
310.00,0.206
311.00,0.204
312.00,0.202
313.00,0.200
314.00,0.198
315.00,0.196
316.00,0.195
317.00,0.193
318.00,0.191
319.00,0.189
320.00,0.188
321.00,0.186
322.00,0.184
323.00,0.182
324.00,0.180
325.00,0.179
326.00,0.177
327.00,0.175
328.00,0.173
329.00,0.170
330.00,0.169
331.00,0.167
332.00,0.165
333.00,0.163
334.00,0.161
335.00,0.159
336.00,0.157
337.00,0.155
338.00,0.154
339.00,0.152
340.00,0.150
341.00,0.146
342.00,0.144
343.00,0.143
344.00,0.141
345.00,0.140
346.00,0.138
347.00,0.136
348.00,0.134
349.00,0.133
350.00,0.131
351.00,0.130
352.00,0.128
353.00,0.127
354.00,0.126
355.00,0.124
356.00,0.123
357.00,0.121
358.00,0.120
359.00,0.119
360.00,0.117
361.00,0.116
362.00,0.115
363.00,0.114
364.00,0.113
365.00,0.112
366.00,0.111
367.00,0.110
368.00,0.108
369.00,0.108
370.00,0.106
371.00,0.105
372.00,0.105
373.00,0.104
374.00,0.103
375.00,0.102
376.00,0.101
377.00,0.100
378.00,0.099
379.00,0.098
380.00,0.097
381.00,0.096
382.00,0.095
383.00,0.095
384.00,0.094
385.00,0.093
386.00,0.092
387.00,0.092
388.00,0.091
389.00,0.090
390.00,0.089
391.00,0.089
392.00,0.088
393.00,0.088
394.00,0.087
395.00,0.086
396.00,0.086
397.00,0.085
398.00,0.085
399.00,0.084
400.00,0.083
401.00,0.083
402.00,0.082
403.00,0.082
404.00,0.081
405.00,0.081
406.00,0.080
407.00,0.080
408.00,0.079
409.00,0.079
410.00,0.078
411.00,0.078
412.00,0.077
413.00,0.077
414.00,0.077
415.00,0.076
416.00,0.075
417.00,0.075
418.00,0.075
419.00,0.075
420.00,0.074
421.00,0.074
422.00,0.073
423.00,0.073
424.00,0.073
425.00,0.072
426.00,0.072
427.00,0.071
428.00,0.071
429.00,0.071
430.00,0.070
431.00,0.070
432.00,0.070
433.00,0.069
434.00,0.069
435.00,0.069
436.00,0.068
437.00,0.068
438.00,0.068
439.00,0.067
440.00,0.067
441.00,0.067
442.00,0.066
443.00,0.066
444.00,0.066
445.00,0.066
446.00,0.065
447.00,0.065
448.00,0.065
449.00,0.065
450.00,0.064
451.00,0.064
452.00,0.064
453.00,0.064
454.00,0.063
455.00,0.063
456.00,0.063
457.00,0.063
458.00,0.062
459.00,0.062
460.00,0.062
461.00,0.062
462.00,0.061
463.00,0.061
464.00,0.061
465.00,0.061
466.00,0.060
467.00,0.060
468.00,0.060
469.00,0.060
470.00,0.059
471.00,0.059
472.00,0.059
473.00,0.059
474.00,0.059
475.00,0.058
476.00,0.058
477.00,0.058
478.00,0.058
479.00,0.058
480.00,0.058
481.00,0.057
482.00,0.057
483.00,0.057
484.00,0.057
485.00,0.057
486.00,0.056
487.00,0.056
488.00,0.056
489.00,0.056
490.00,0.056
491.00,0.056
492.00,0.055
493.00,0.055
494.00,0.055
495.00,0.055
496.00,0.055
497.00,0.055
498.00,0.055
499.00,0.054
500.00,0.054
501.00,0.054
502.00,0.054
503.00,0.054
504.00,0.054
505.00,0.054
506.00,0.054
507.00,0.054
508.00,0.054
509.00,0.053
510.00,0.053
511.00,0.053
512.00,0.053
513.00,0.053
514.00,0.053
515.00,0.053
516.00,0.053
517.00,0.052
518.00,0.052
519.00,0.052
520.00,0.052
521.00,0.052
522.00,0.052
523.00,0.052
524.00,0.052
525.00,0.051
526.00,0.051
527.00,0.051
528.00,0.051
529.00,0.051
530.00,0.051
531.00,0.051
532.00,0.051
533.00,0.051
534.00,0.051
535.00,0.050
536.00,0.051
537.00,0.050
538.00,0.050
539.00,0.050
540.00,0.050
541.00,0.050
542.00,0.050
543.00,0.050
544.00,0.049
545.00,0.049
546.00,0.049
547.00,0.049
548.00,0.049
549.00,0.049
550.00,0.049
551.00,0.049
552.00,0.049
553.00,0.049
554.00,0.049
555.00,0.048
556.00,0.048
557.00,0.048
558.00,0.048
559.00,0.048
560.00,0.048
561.00,0.048
562.00,0.048
563.00,0.048
564.00,0.048
565.00,0.048
566.00,0.048
567.00,0.048
568.00,0.048
569.00,0.047
570.00,0.047
571.00,0.047
572.00,0.047
573.00,0.047
574.00,0.047
575.00,0.047
576.00,0.047
577.00,0.047
578.00,0.047
579.00,0.047
580.00,0.047
581.00,0.047
582.00,0.047
583.00,0.047
584.00,0.047
585.00,0.047
586.00,0.047
587.00,0.046
588.00,0.046
589.00,0.046
590.00,0.046
591.00,0.046
592.00,0.046
593.00,0.046
594.00,0.046
595.00,0.046
596.00,0.046
597.00,0.046
598.00,0.046
599.00,0.046
600.00,0.046
601.00,0.046
602.00,0.046
603.00,0.046
604.00,0.046
605.00,0.046
606.00,0.046
607.00,0.046
608.00,0.046
609.00,0.046
610.00,0.046
611.00,0.046
612.00,0.046
613.00,0.046
614.00,0.046
615.00,0.046
616.00,0.046
617.00,0.046
618.00,0.046
619.00,0.046
620.00,0.046
621.00,0.046
622.00,0.046
623.00,0.046
624.00,0.046
625.00,0.046
626.00,0.046
627.00,0.046
628.00,0.046
629.00,0.046
630.00,0.046
631.00,0.046
632.00,0.046
633.00,0.046
634.00,0.046
635.00,0.046
636.00,0.046
637.00,0.046
638.00,0.046
639.00,0.046
640.00,0.046
641.00,0.046
642.00,0.046
643.00,0.046
644.00,0.046
645.00,0.046
646.00,0.046
647.00,0.046
648.00,0.046
649.00,0.046
650.00,0.046
651.00,0.046
652.00,0.046
653.00,0.046
654.00,0.046
655.00,0.046
656.00,0.046
657.00,0.045
658.00,0.045
659.00,0.045
660.00,0.045
661.00,0.045
662.00,0.045
663.00,0.045
664.00,0.045
665.00,0.045
666.00,0.045
667.00,0.045
668.00,0.045
669.00,0.045
670.00,0.045
671.00,0.045
672.00,0.045
673.00,0.045
674.00,0.045
675.00,0.045
676.00,0.045
677.00,0.044
678.00,0.044
679.00,0.044
680.00,0.044
681.00,0.044
682.00,0.044
683.00,0.044
684.00,0.044
685.00,0.044
686.00,0.044
687.00,0.044
688.00,0.044
689.00,0.044
690.00,0.044
691.00,0.044
692.00,0.044
693.00,0.044
694.00,0.044
695.00,0.044
696.00,0.044
697.00,0.044
698.00,0.044
699.00,0.044
700.00,0.044
701.00,0.044
702.00,0.044
703.00,0.044
704.00,0.044
705.00,0.044
706.00,0.044
707.00,0.044
708.00,0.044
709.00,0.044
710.00,0.044
711.00,0.044
712.00,0.044
713.00,0.044
714.00,0.044
715.00,0.044
716.00,0.044
717.00,0.045
718.00,0.045
719.00,0.045
720.00,0.045
721.00,0.045
722.00,0.046
723.00,0.046
724.00,0.046
725.00,0.046
726.00,0.047
727.00,0.047
728.00,0.047
729.00,0.048
730.00,0.048
731.00,0.049
732.00,0.049
733.00,0.050
734.00,0.050
735.00,0.051
736.00,0.051
737.00,0.051
738.00,0.051
739.00,0.052
740.00,0.052
741.00,0.052
742.00,0.052
743.00,0.052
744.00,0.052
745.00,0.052
746.00,0.052
747.00,0.052
748.00,0.052
749.00,0.052
750.00,0.052
751.00,0.052
752.00,0.052
753.00,0.052
754.00,0.052
755.00,0.052
756.00,0.052
757.00,0.052
758.00,0.052
759.00,0.052
760.00,0.052
761.00,0.052
762.00,0.052
763.00,0.052
764.00,0.052
765.00,0.052
766.00,0.052
767.00,0.052
768.00,0.052
769.00,0.052
770.00,0.052
771.00,0.052
772.00,0.052
773.00,0.052
774.00,0.052
775.00,0.052
776.00,0.052
777.00,0.052
778.00,0.052
779.00,0.052
780.00,0.052
781.00,0.051
782.00,0.051
783.00,0.051
784.00,0.051
785.00,0.051
786.00,0.051
787.00,0.051
788.00,0.051
789.00,0.050
790.00,0.050
791.00,0.050
792.00,0.050
793.00,0.050
794.00,0.049
795.00,0.049
796.00,0.049
797.00,0.049
798.00,0.049
799.00,0.049
800.00,0.048
801.00,0.048
802.00,0.048
803.00,0.048
804.00,0.048
805.00,0.048
806.00,0.048
807.00,0.048
808.00,0.048
809.00,0.048
810.00,0.048
811.00,0.048
812.00,0.048
813.00,0.048
814.00,0.048
815.00,0.048
816.00,0.048
817.00,0.048
818.00,0.048
819.00,0.048
820.00,0.048
821.00,0.048
822.00,0.049
823.00,0.049
824.00,0.049
825.00,0.050
826.00,0.050
827.00,0.050
828.00,0.051
829.00,0.052
830.00,0.052
831.00,0.053
832.00,0.053
833.00,0.053
834.00,0.054
835.00,0.054
836.00,0.054
837.00,0.054
838.00,0.055
839.00,0.055
840.00,0.055
841.00,0.055
842.00,0.055
843.00,0.055
844.00,0.055
845.00,0.055
846.00,0.055
847.00,0.055
848.00,0.056
849.00,0.056
850.00,0.056
851.00,0.056
852.00,0.056
853.00,0.056
854.00,0.056
855.00,0.056
856.00,0.056
857.00,0.056
858.00,0.056
859.00,0.056
860.00,0.057
861.00,0.057
862.00,0.057
863.00,0.057
864.00,0.057
865.00,0.057
866.00,0.057
867.00,0.057
868.00,0.058
869.00,0.058
870.00,0.058
871.00,0.058
872.00,0.058
873.00,0.059
874.00,0.059
875.00,0.059
876.00,0.059
877.00,0.059
878.00,0.059
879.00,0.060
880.00,0.060
881.00,0.060
882.00,0.060
883.00,0.061
884.00,0.061
885.00,0.061
886.00,0.061
887.00,0.061
888.00,0.062
889.00,0.062
890.00,0.062
891.00,0.062
892.00,0.063
893.00,0.063
894.00,0.063
895.00,0.063
896.00,0.064
897.00,0.064
898.00,0.064
899.00,0.064
900.00,0.064
