"HelmBloomfield_50x - RawData"
"Wavelength nm.","Abs."
190.00,3.419
191.00,3.551
192.00,3.674
193.00,3.870
194.00,3.869
195.00,3.640
196.00,3.621
197.00,3.620
198.00,3.676
199.00,3.951
200.00,3.785
201.00,3.805
202.00,3.734
203.00,3.834
204.00,3.935
205.00,3.777
206.00,3.607
207.00,3.501
208.00,3.476
209.00,3.356
210.00,3.220
211.00,3.089
212.00,2.981
213.00,2.864
214.00,2.753
215.00,2.608
216.00,2.497
217.00,2.379
218.00,2.267
219.00,2.152
220.00,2.038
221.00,1.935
222.00,1.840
223.00,1.743
224.00,1.652
225.00,1.566
226.00,1.478
227.00,1.392
228.00,1.309
229.00,1.236
230.00,1.168
231.00,1.107
232.00,1.053
233.00,1.005
234.00,0.964
235.00,0.929
236.00,0.899
237.00,0.874
238.00,0.855
239.00,0.839
240.00,0.828
241.00,0.820
242.00,0.815
243.00,0.813
244.00,0.812
245.00,0.813
246.00,0.814
247.00,0.817
248.00,0.821
249.00,0.825
250.00,0.828
251.00,0.833
252.00,0.837
253.00,0.842
254.00,0.846
255.00,0.850
256.00,0.852
257.00,0.854
258.00,0.855
259.00,0.854
260.00,0.852
261.00,0.851
262.00,0.849
263.00,0.847
264.00,0.845
265.00,0.841
266.00,0.837
267.00,0.832
268.00,0.825
269.00,0.818
270.00,0.808
271.00,0.798
272.00,0.788
273.00,0.776
274.00,0.764
275.00,0.752
276.00,0.740
277.00,0.727
278.00,0.712
279.00,0.697
280.00,0.681
281.00,0.666
282.00,0.650
283.00,0.633
284.00,0.615
285.00,0.597
286.00,0.580
287.00,0.563
288.00,0.546
289.00,0.528
290.00,0.509
291.00,0.491
292.00,0.474
293.00,0.459
294.00,0.447
295.00,0.435
296.00,0.425
297.00,0.416
298.00,0.407
299.00,0.399
300.00,0.392
301.00,0.385
302.00,0.380
303.00,0.374
304.00,0.369
305.00,0.365
306.00,0.361
307.00,0.356
308.00,0.353
309.00,0.349
310.00,0.346
311.00,0.343
312.00,0.340
313.00,0.337
314.00,0.334
315.00,0.331
316.00,0.328
317.00,0.325
318.00,0.321
319.00,0.318
320.00,0.315
321.00,0.312
322.00,0.308
323.00,0.304
324.00,0.301
325.00,0.296
326.00,0.292
327.00,0.288
328.00,0.284
329.00,0.279
330.00,0.274
331.00,0.269
332.00,0.264
333.00,0.259
334.00,0.254
335.00,0.249
336.00,0.244
337.00,0.239
338.00,0.234
339.00,0.229
340.00,0.224
341.00,0.218
342.00,0.212
343.00,0.207
344.00,0.203
345.00,0.198
346.00,0.193
347.00,0.189
348.00,0.184
349.00,0.180
350.00,0.176
351.00,0.172
352.00,0.168
353.00,0.164
354.00,0.160
355.00,0.156
356.00,0.153
357.00,0.149
358.00,0.146
359.00,0.142
360.00,0.139
361.00,0.136
362.00,0.133
363.00,0.130
364.00,0.128
365.00,0.125
366.00,0.123
367.00,0.121
368.00,0.118
369.00,0.116
370.00,0.114
371.00,0.112
372.00,0.110
373.00,0.108
374.00,0.107
375.00,0.105
376.00,0.103
377.00,0.102
378.00,0.100
379.00,0.099
380.00,0.097
381.00,0.096
382.00,0.095
383.00,0.094
384.00,0.092
385.00,0.091
386.00,0.090
387.00,0.089
388.00,0.088
389.00,0.088
390.00,0.087
391.00,0.086
392.00,0.085
393.00,0.084
394.00,0.083
395.00,0.083
396.00,0.082
397.00,0.081
398.00,0.081
399.00,0.080
400.00,0.079
401.00,0.079
402.00,0.078
403.00,0.078
404.00,0.077
405.00,0.077
406.00,0.076
407.00,0.076
408.00,0.075
409.00,0.075
410.00,0.074
411.00,0.074
412.00,0.073
413.00,0.073
414.00,0.073
415.00,0.072
416.00,0.072
417.00,0.072
418.00,0.071
419.00,0.071
420.00,0.071
421.00,0.071
422.00,0.070
423.00,0.070
424.00,0.070
425.00,0.069
426.00,0.069
427.00,0.069
428.00,0.068
429.00,0.068
430.00,0.068
431.00,0.068
432.00,0.067
433.00,0.067
434.00,0.067
435.00,0.067
436.00,0.066
437.00,0.066
438.00,0.066
439.00,0.066
440.00,0.065
441.00,0.065
442.00,0.065
443.00,0.065
444.00,0.065
445.00,0.064
446.00,0.064
447.00,0.064
448.00,0.064
449.00,0.064
450.00,0.063
451.00,0.063
452.00,0.063
453.00,0.063
454.00,0.063
455.00,0.063
456.00,0.062
457.00,0.062
458.00,0.062
459.00,0.062
460.00,0.062
461.00,0.061
462.00,0.061
463.00,0.061
464.00,0.061
465.00,0.061
466.00,0.061
467.00,0.060
468.00,0.060
469.00,0.060
470.00,0.060
471.00,0.060
472.00,0.060
473.00,0.059
474.00,0.059
475.00,0.059
476.00,0.059
477.00,0.059
478.00,0.058
479.00,0.058
480.00,0.058
481.00,0.058
482.00,0.058
483.00,0.057
484.00,0.057
485.00,0.057
486.00,0.057
487.00,0.057
488.00,0.057
489.00,0.057
490.00,0.056
491.00,0.056
492.00,0.056
493.00,0.056
494.00,0.056
495.00,0.056
496.00,0.056
497.00,0.055
498.00,0.055
499.00,0.055
500.00,0.055
501.00,0.055
502.00,0.055
503.00,0.055
504.00,0.054
505.00,0.054
506.00,0.054
507.00,0.054
508.00,0.054
509.00,0.054
510.00,0.054
511.00,0.054
512.00,0.054
513.00,0.053
514.00,0.053
515.00,0.053
516.00,0.053
517.00,0.053
518.00,0.053
519.00,0.053
520.00,0.053
521.00,0.053
522.00,0.052
523.00,0.052
524.00,0.052
525.00,0.052
526.00,0.052
527.00,0.052
528.00,0.052
529.00,0.052
530.00,0.052
531.00,0.051
532.00,0.051
533.00,0.051
534.00,0.051
535.00,0.051
536.00,0.051
537.00,0.051
538.00,0.051
539.00,0.051
540.00,0.051
541.00,0.051
542.00,0.051
543.00,0.051
544.00,0.050
545.00,0.050
546.00,0.050
547.00,0.050
548.00,0.050
549.00,0.050
550.00,0.050
551.00,0.050
552.00,0.050
553.00,0.050
554.00,0.050
555.00,0.050
556.00,0.050
557.00,0.050
558.00,0.050
559.00,0.049
560.00,0.049
561.00,0.049
562.00,0.049
563.00,0.049
564.00,0.049
565.00,0.049
566.00,0.049
567.00,0.049
568.00,0.049
569.00,0.049
570.00,0.049
571.00,0.049
572.00,0.049
573.00,0.049
574.00,0.049
575.00,0.049
576.00,0.049
577.00,0.049
578.00,0.049
579.00,0.049
580.00,0.048
581.00,0.048
582.00,0.048
583.00,0.048
584.00,0.048
585.00,0.048
586.00,0.048
587.00,0.048
588.00,0.048
589.00,0.048
590.00,0.048
591.00,0.048
592.00,0.048
593.00,0.048
594.00,0.048
595.00,0.048
596.00,0.048
597.00,0.048
598.00,0.048
599.00,0.048
600.00,0.048
601.00,0.048
602.00,0.048
603.00,0.048
604.00,0.048
605.00,0.048
606.00,0.048
607.00,0.048
608.00,0.048
609.00,0.048
610.00,0.048
611.00,0.048
612.00,0.048
613.00,0.047
614.00,0.047
615.00,0.047
616.00,0.047
617.00,0.047
618.00,0.047
619.00,0.047
620.00,0.047
621.00,0.047
622.00,0.047
623.00,0.047
624.00,0.047
625.00,0.047
626.00,0.047
627.00,0.047
628.00,0.047
629.00,0.047
630.00,0.047
631.00,0.047
632.00,0.047
633.00,0.047
634.00,0.047
635.00,0.047
636.00,0.046
637.00,0.046
638.00,0.046
639.00,0.046
640.00,0.046
641.00,0.046
642.00,0.046
643.00,0.046
644.00,0.046
645.00,0.046
646.00,0.046
647.00,0.046
648.00,0.046
649.00,0.046
650.00,0.046
651.00,0.046
652.00,0.046
653.00,0.046
654.00,0.046
655.00,0.046
656.00,0.046
657.00,0.046
658.00,0.046
659.00,0.046
660.00,0.046
661.00,0.046
662.00,0.046
663.00,0.046
664.00,0.046
665.00,0.046
666.00,0.046
667.00,0.046
668.00,0.046
669.00,0.046
670.00,0.046
671.00,0.046
672.00,0.046
673.00,0.046
674.00,0.046
675.00,0.046
676.00,0.046
677.00,0.046
678.00,0.046
679.00,0.046
680.00,0.046
681.00,0.046
682.00,0.046
683.00,0.046
684.00,0.046
685.00,0.046
686.00,0.046
687.00,0.046
688.00,0.045
689.00,0.046
690.00,0.046
691.00,0.046
692.00,0.046
693.00,0.046
694.00,0.046
695.00,0.046
696.00,0.046
697.00,0.046
698.00,0.046
699.00,0.046
700.00,0.046
701.00,0.046
702.00,0.046
703.00,0.046
704.00,0.046
705.00,0.046
706.00,0.046
707.00,0.046
708.00,0.046
709.00,0.046
710.00,0.046
711.00,0.046
712.00,0.047
713.00,0.047
714.00,0.047
715.00,0.047
716.00,0.047
717.00,0.047
718.00,0.048
719.00,0.048
720.00,0.048
721.00,0.048
722.00,0.048
723.00,0.048
724.00,0.049
725.00,0.049
726.00,0.049
727.00,0.050
728.00,0.050
729.00,0.050
730.00,0.051
731.00,0.051
732.00,0.052
733.00,0.052
734.00,0.053
735.00,0.053
736.00,0.053
737.00,0.053
738.00,0.054
739.00,0.054
740.00,0.054
741.00,0.054
742.00,0.054
743.00,0.054
744.00,0.054
745.00,0.054
746.00,0.054
747.00,0.054
748.00,0.054
749.00,0.054
750.00,0.054
751.00,0.054
752.00,0.054
753.00,0.054
754.00,0.054
755.00,0.054
756.00,0.053
757.00,0.053
758.00,0.053
759.00,0.053
760.00,0.054
761.00,0.053
762.00,0.053
763.00,0.053
764.00,0.053
765.00,0.053
766.00,0.053
767.00,0.053
768.00,0.053
769.00,0.053
770.00,0.053
771.00,0.053
772.00,0.053
773.00,0.052
774.00,0.052
775.00,0.052
776.00,0.052
777.00,0.052
778.00,0.052
779.00,0.052
780.00,0.052
781.00,0.052
782.00,0.052
783.00,0.052
784.00,0.052
785.00,0.051
786.00,0.051
787.00,0.051
788.00,0.051
789.00,0.051
790.00,0.051
791.00,0.051
792.00,0.051
793.00,0.051
794.00,0.050
795.00,0.050
796.00,0.050
797.00,0.050
798.00,0.050
799.00,0.050
800.00,0.050
801.00,0.050
802.00,0.050
803.00,0.050
804.00,0.050
805.00,0.050
806.00,0.049
807.00,0.049
808.00,0.049
809.00,0.049
810.00,0.049
811.00,0.049
812.00,0.049
813.00,0.049
814.00,0.049
815.00,0.050
816.00,0.050
817.00,0.050
818.00,0.050
819.00,0.050
820.00,0.050
821.00,0.050
822.00,0.050
823.00,0.051
824.00,0.051
825.00,0.051
826.00,0.052
827.00,0.052
828.00,0.053
829.00,0.053
830.00,0.054
831.00,0.054
832.00,0.055
833.00,0.055
834.00,0.056
835.00,0.056
836.00,0.056
837.00,0.056
838.00,0.057
839.00,0.057
840.00,0.057
841.00,0.057
842.00,0.057
843.00,0.057
844.00,0.057
845.00,0.057
846.00,0.058
847.00,0.058
848.00,0.058
849.00,0.058
850.00,0.058
851.00,0.058
852.00,0.058
853.00,0.058
854.00,0.058
855.00,0.058
856.00,0.059
857.00,0.059
858.00,0.059
859.00,0.059
860.00,0.059
861.00,0.059
862.00,0.059
863.00,0.059
864.00,0.059
865.00,0.060
866.00,0.060
867.00,0.060
868.00,0.060
869.00,0.060
870.00,0.060
871.00,0.060
872.00,0.061
873.00,0.061
874.00,0.061
875.00,0.061
876.00,0.061
877.00,0.062
878.00,0.062
879.00,0.062
880.00,0.062
881.00,0.063
882.00,0.063
883.00,0.063
884.00,0.063
885.00,0.064
886.00,0.064
887.00,0.064
888.00,0.064
889.00,0.064
890.00,0.065
891.00,0.065
892.00,0.065
893.00,0.065
894.00,0.066
895.00,0.066
896.00,0.066
897.00,0.066
898.00,0.067
899.00,0.067
900.00,0.067
