"HelmFairmount_50x - RawData"
"Wavelength nm.","Abs."
190.00,3.615
191.00,3.618
192.00,3.745
193.00,3.866
194.00,3.950
195.00,3.816
196.00,3.643
197.00,3.743
198.00,3.841
199.00,3.697
200.00,3.714
201.00,3.786
202.00,3.886
203.00,3.873
204.00,3.962
205.00,3.898
206.00,3.863
207.00,3.874
208.00,3.713
209.00,3.682
210.00,3.597
211.00,3.383
212.00,3.263
213.00,3.071
214.00,2.913
215.00,2.822
216.00,2.702
217.00,2.549
218.00,2.435
219.00,2.312
220.00,2.195
221.00,2.090
222.00,1.988
223.00,1.894
224.00,1.797
225.00,1.708
226.00,1.623
227.00,1.540
228.00,1.459
229.00,1.387
230.00,1.319
231.00,1.259
232.00,1.205
233.00,1.155
234.00,1.113
235.00,1.077
236.00,1.046
237.00,1.020
238.00,0.999
239.00,0.981
240.00,0.967
241.00,0.956
242.00,0.948
243.00,0.943
244.00,0.940
245.00,0.939
246.00,0.938
247.00,0.939
248.00,0.940
249.00,0.943
250.00,0.946
251.00,0.949
252.00,0.953
253.00,0.957
254.00,0.960
255.00,0.964
256.00,0.967
257.00,0.969
258.00,0.969
259.00,0.968
260.00,0.967
261.00,0.965
262.00,0.963
263.00,0.962
264.00,0.960
265.00,0.957
266.00,0.954
267.00,0.949
268.00,0.943
269.00,0.936
270.00,0.927
271.00,0.919
272.00,0.909
273.00,0.898
274.00,0.887
275.00,0.876
276.00,0.863
277.00,0.849
278.00,0.835
279.00,0.819
280.00,0.804
281.00,0.788
282.00,0.771
283.00,0.754
284.00,0.736
285.00,0.717
286.00,0.698
287.00,0.680
288.00,0.660
289.00,0.641
290.00,0.622
291.00,0.603
292.00,0.586
293.00,0.571
294.00,0.558
295.00,0.546
296.00,0.536
297.00,0.526
298.00,0.516
299.00,0.508
300.00,0.500
301.00,0.493
302.00,0.486
303.00,0.479
304.00,0.473
305.00,0.467
306.00,0.461
307.00,0.455
308.00,0.449
309.00,0.443
310.00,0.437
311.00,0.432
312.00,0.427
313.00,0.422
314.00,0.417
315.00,0.412
316.00,0.406
317.00,0.401
318.00,0.396
319.00,0.390
320.00,0.385
321.00,0.379
322.00,0.373
323.00,0.367
324.00,0.361
325.00,0.355
326.00,0.349
327.00,0.343
328.00,0.336
329.00,0.329
330.00,0.322
331.00,0.316
332.00,0.309
333.00,0.302
334.00,0.295
335.00,0.289
336.00,0.283
337.00,0.276
338.00,0.270
339.00,0.263
340.00,0.257
341.00,0.249
342.00,0.243
343.00,0.237
344.00,0.231
345.00,0.225
346.00,0.220
347.00,0.215
348.00,0.209
349.00,0.204
350.00,0.199
351.00,0.194
352.00,0.189
353.00,0.185
354.00,0.180
355.00,0.176
356.00,0.172
357.00,0.168
358.00,0.164
359.00,0.160
360.00,0.156
361.00,0.154
362.00,0.150
363.00,0.147
364.00,0.144
365.00,0.141
366.00,0.139
367.00,0.136
368.00,0.134
369.00,0.131
370.00,0.129
371.00,0.127
372.00,0.125
373.00,0.123
374.00,0.121
375.00,0.119
376.00,0.117
377.00,0.115
378.00,0.113
379.00,0.112
380.00,0.110
381.00,0.108
382.00,0.107
383.00,0.105
384.00,0.104
385.00,0.103
386.00,0.102
387.00,0.100
388.00,0.099
389.00,0.098
390.00,0.097
391.00,0.096
392.00,0.095
393.00,0.094
394.00,0.093
395.00,0.092
396.00,0.091
397.00,0.090
398.00,0.090
399.00,0.089
400.00,0.088
401.00,0.087
402.00,0.087
403.00,0.086
404.00,0.085
405.00,0.085
406.00,0.084
407.00,0.083
408.00,0.083
409.00,0.082
410.00,0.082
411.00,0.081
412.00,0.081
413.00,0.080
414.00,0.080
415.00,0.079
416.00,0.079
417.00,0.078
418.00,0.078
419.00,0.078
420.00,0.077
421.00,0.077
422.00,0.076
423.00,0.076
424.00,0.076
425.00,0.075
426.00,0.075
427.00,0.074
428.00,0.074
429.00,0.074
430.00,0.073
431.00,0.073
432.00,0.073
433.00,0.072
434.00,0.072
435.00,0.072
436.00,0.071
437.00,0.071
438.00,0.071
439.00,0.071
440.00,0.070
441.00,0.070
442.00,0.070
443.00,0.069
444.00,0.069
445.00,0.069
446.00,0.069
447.00,0.068
448.00,0.068
449.00,0.068
450.00,0.068
451.00,0.067
452.00,0.067
453.00,0.067
454.00,0.067
455.00,0.066
456.00,0.066
457.00,0.066
458.00,0.066
459.00,0.065
460.00,0.065
461.00,0.065
462.00,0.065
463.00,0.065
464.00,0.064
465.00,0.064
466.00,0.064
467.00,0.064
468.00,0.064
469.00,0.063
470.00,0.063
471.00,0.063
472.00,0.063
473.00,0.063
474.00,0.062
475.00,0.062
476.00,0.062
477.00,0.062
478.00,0.062
479.00,0.061
480.00,0.061
481.00,0.061
482.00,0.061
483.00,0.060
484.00,0.060
485.00,0.060
486.00,0.060
487.00,0.060
488.00,0.060
489.00,0.059
490.00,0.059
491.00,0.059
492.00,0.059
493.00,0.059
494.00,0.059
495.00,0.058
496.00,0.058
497.00,0.058
498.00,0.058
499.00,0.058
500.00,0.058
501.00,0.057
502.00,0.057
503.00,0.057
504.00,0.057
505.00,0.057
506.00,0.057
507.00,0.057
508.00,0.056
509.00,0.056
510.00,0.056
511.00,0.056
512.00,0.056
513.00,0.056
514.00,0.056
515.00,0.055
516.00,0.055
517.00,0.055
518.00,0.055
519.00,0.055
520.00,0.055
521.00,0.055
522.00,0.055
523.00,0.055
524.00,0.054
525.00,0.054
526.00,0.054
527.00,0.054
528.00,0.054
529.00,0.054
530.00,0.054
531.00,0.054
532.00,0.054
533.00,0.053
534.00,0.053
535.00,0.053
536.00,0.053
537.00,0.053
538.00,0.053
539.00,0.053
540.00,0.053
541.00,0.053
542.00,0.053
543.00,0.053
544.00,0.052
545.00,0.052
546.00,0.052
547.00,0.052
548.00,0.052
549.00,0.052
550.00,0.052
551.00,0.052
552.00,0.052
553.00,0.052
554.00,0.052
555.00,0.051
556.00,0.051
557.00,0.051
558.00,0.051
559.00,0.051
560.00,0.051
561.00,0.051
562.00,0.051
563.00,0.051
564.00,0.051
565.00,0.051
566.00,0.051
567.00,0.051
568.00,0.051
569.00,0.051
570.00,0.050
571.00,0.050
572.00,0.050
573.00,0.050
574.00,0.050
575.00,0.050
576.00,0.050
577.00,0.050
578.00,0.050
579.00,0.050
580.00,0.050
581.00,0.050
582.00,0.050
583.00,0.050
584.00,0.050
585.00,0.050
586.00,0.050
587.00,0.050
588.00,0.050
589.00,0.050
590.00,0.050
591.00,0.050
592.00,0.049
593.00,0.050
594.00,0.050
595.00,0.049
596.00,0.049
597.00,0.049
598.00,0.049
599.00,0.049
600.00,0.049
601.00,0.049
602.00,0.049
603.00,0.049
604.00,0.049
605.00,0.049
606.00,0.049
607.00,0.049
608.00,0.049
609.00,0.049
610.00,0.049
611.00,0.049
612.00,0.049
613.00,0.049
614.00,0.049
615.00,0.049
616.00,0.049
617.00,0.049
618.00,0.049
619.00,0.049
620.00,0.049
621.00,0.049
622.00,0.048
623.00,0.048
624.00,0.048
625.00,0.048
626.00,0.048
627.00,0.048
628.00,0.048
629.00,0.048
630.00,0.048
631.00,0.048
632.00,0.048
633.00,0.048
634.00,0.048
635.00,0.048
636.00,0.048
637.00,0.048
638.00,0.048
639.00,0.048
640.00,0.048
641.00,0.048
642.00,0.048
643.00,0.048
644.00,0.048
645.00,0.048
646.00,0.048
647.00,0.048
648.00,0.048
649.00,0.048
650.00,0.048
651.00,0.048
652.00,0.048
653.00,0.047
654.00,0.047
655.00,0.047
656.00,0.047
657.00,0.047
658.00,0.047
659.00,0.047
660.00,0.047
661.00,0.047
662.00,0.047
663.00,0.047
664.00,0.047
665.00,0.047
666.00,0.047
667.00,0.047
668.00,0.047
669.00,0.047
670.00,0.047
671.00,0.047
672.00,0.047
673.00,0.047
674.00,0.047
675.00,0.047
676.00,0.047
677.00,0.047
678.00,0.047
679.00,0.047
680.00,0.047
681.00,0.047
682.00,0.047
683.00,0.047
684.00,0.047
685.00,0.047
686.00,0.047
687.00,0.047
688.00,0.047
689.00,0.047
690.00,0.047
691.00,0.047
692.00,0.047
693.00,0.047
694.00,0.047
695.00,0.047
696.00,0.047
697.00,0.047
698.00,0.047
699.00,0.047
700.00,0.047
701.00,0.047
702.00,0.047
703.00,0.047
704.00,0.047
705.00,0.047
706.00,0.047
707.00,0.047
708.00,0.047
709.00,0.047
710.00,0.048
711.00,0.048
712.00,0.048
713.00,0.048
714.00,0.048
715.00,0.048
716.00,0.048
717.00,0.048
718.00,0.049
719.00,0.049
720.00,0.049
721.00,0.049
722.00,0.049
723.00,0.050
724.00,0.050
725.00,0.050
726.00,0.050
727.00,0.051
728.00,0.051
729.00,0.051
730.00,0.052
731.00,0.053
732.00,0.053
733.00,0.053
734.00,0.054
735.00,0.054
736.00,0.054
737.00,0.055
738.00,0.055
739.00,0.055
740.00,0.055
741.00,0.055
742.00,0.055
743.00,0.055
744.00,0.055
745.00,0.055
746.00,0.055
747.00,0.055
748.00,0.055
749.00,0.055
750.00,0.055
751.00,0.055
752.00,0.055
753.00,0.055
754.00,0.055
755.00,0.055
756.00,0.055
757.00,0.055
758.00,0.055
759.00,0.055
760.00,0.055
761.00,0.055
762.00,0.055
763.00,0.055
764.00,0.055
765.00,0.055
766.00,0.055
767.00,0.054
768.00,0.054
769.00,0.054
770.00,0.054
771.00,0.054
772.00,0.054
773.00,0.054
774.00,0.054
775.00,0.054
776.00,0.054
777.00,0.054
778.00,0.054
779.00,0.054
780.00,0.054
781.00,0.054
782.00,0.053
783.00,0.053
784.00,0.053
785.00,0.053
786.00,0.053
787.00,0.053
788.00,0.053
789.00,0.053
790.00,0.053
791.00,0.052
792.00,0.052
793.00,0.052
794.00,0.052
795.00,0.052
796.00,0.052
797.00,0.052
798.00,0.052
799.00,0.052
800.00,0.052
801.00,0.051
802.00,0.051
803.00,0.051
804.00,0.051
805.00,0.051
806.00,0.051
807.00,0.051
808.00,0.051
809.00,0.051
810.00,0.051
811.00,0.051
812.00,0.051
813.00,0.051
814.00,0.051
815.00,0.051
816.00,0.051
817.00,0.051
818.00,0.051
819.00,0.052
820.00,0.052
821.00,0.052
822.00,0.052
823.00,0.052
824.00,0.053
825.00,0.053
826.00,0.054
827.00,0.054
828.00,0.055
829.00,0.055
830.00,0.056
831.00,0.056
832.00,0.057
833.00,0.057
834.00,0.057
835.00,0.058
836.00,0.058
837.00,0.058
838.00,0.058
839.00,0.058
840.00,0.059
841.00,0.059
842.00,0.059
843.00,0.059
844.00,0.059
845.00,0.059
846.00,0.059
847.00,0.059
848.00,0.059
849.00,0.059
850.00,0.060
851.00,0.060
852.00,0.060
853.00,0.060
854.00,0.060
855.00,0.060
856.00,0.060
857.00,0.060
858.00,0.061
859.00,0.061
860.00,0.061
861.00,0.061
862.00,0.061
863.00,0.061
864.00,0.061
865.00,0.061
866.00,0.061
867.00,0.061
868.00,0.062
869.00,0.062
870.00,0.062
871.00,0.062
872.00,0.062
873.00,0.063
874.00,0.063
875.00,0.063
876.00,0.063
877.00,0.063
878.00,0.063
879.00,0.064
880.00,0.064
881.00,0.064
882.00,0.064
883.00,0.065
884.00,0.065
885.00,0.065
886.00,0.065
887.00,0.066
888.00,0.066
889.00,0.066
890.00,0.066
891.00,0.066
892.00,0.067
893.00,0.067
894.00,0.067
895.00,0.067
896.00,0.068
897.00,0.068
898.00,0.068
899.00,0.068
900.00,0.068
