"HelmCasgrainator_50x - RawData"
"Wavelength nm.","Abs."
190.00,2.819
191.00,2.811
192.00,3.038
193.00,3.130
194.00,3.064
195.00,3.125
196.00,3.262
197.00,3.304
198.00,3.333
199.00,3.497
200.00,3.458
201.00,3.257
202.00,3.290
203.00,3.500
204.00,3.435
205.00,3.596
206.00,3.504
207.00,3.710
208.00,3.606
209.00,3.526
210.00,3.568
211.00,3.550
212.00,3.457
213.00,3.463
214.00,3.549
215.00,3.325
216.00,3.266
217.00,3.228
218.00,3.072
219.00,2.979
220.00,2.866
221.00,2.750
222.00,2.631
223.00,2.532
224.00,2.409
225.00,2.291
226.00,2.176
227.00,2.059
228.00,1.947
229.00,1.848
230.00,1.754
231.00,1.667
232.00,1.588
233.00,1.518
234.00,1.458
235.00,1.407
236.00,1.363
237.00,1.327
238.00,1.298
239.00,1.275
240.00,1.257
241.00,1.243
242.00,1.235
243.00,1.230
244.00,1.228
245.00,1.229
246.00,1.231
247.00,1.235
248.00,1.240
249.00,1.246
250.00,1.252
251.00,1.259
252.00,1.266
253.00,1.275
254.00,1.282
255.00,1.290
256.00,1.297
257.00,1.302
258.00,1.306
259.00,1.307
260.00,1.308
261.00,1.308
262.00,1.309
263.00,1.310
264.00,1.310
265.00,1.309
266.00,1.306
267.00,1.303
268.00,1.298
269.00,1.291
270.00,1.281
271.00,1.272
272.00,1.261
273.00,1.248
274.00,1.232
275.00,1.217
276.00,1.199
277.00,1.180
278.00,1.157
279.00,1.134
280.00,1.111
281.00,1.087
282.00,1.062
283.00,1.036
284.00,1.008
285.00,0.980
286.00,0.953
287.00,0.926
288.00,0.898
289.00,0.870
290.00,0.840
291.00,0.810
292.00,0.785
293.00,0.761
294.00,0.742
295.00,0.723
296.00,0.708
297.00,0.694
298.00,0.680
299.00,0.668
300.00,0.656
301.00,0.645
302.00,0.635
303.00,0.626
304.00,0.617
305.00,0.608
306.00,0.600
307.00,0.592
308.00,0.584
309.00,0.576
310.00,0.569
311.00,0.562
312.00,0.555
313.00,0.548
314.00,0.541
315.00,0.534
316.00,0.528
317.00,0.521
318.00,0.515
319.00,0.508
320.00,0.501
321.00,0.494
322.00,0.486
323.00,0.479
324.00,0.472
325.00,0.464
326.00,0.456
327.00,0.448
328.00,0.440
329.00,0.431
330.00,0.422
331.00,0.414
332.00,0.406
333.00,0.398
334.00,0.390
335.00,0.381
336.00,0.374
337.00,0.365
338.00,0.357
339.00,0.349
340.00,0.341
341.00,0.332
342.00,0.323
343.00,0.315
344.00,0.308
345.00,0.301
346.00,0.294
347.00,0.288
348.00,0.281
349.00,0.274
350.00,0.268
351.00,0.262
352.00,0.255
353.00,0.250
354.00,0.245
355.00,0.239
356.00,0.234
357.00,0.228
358.00,0.224
359.00,0.219
360.00,0.214
361.00,0.210
362.00,0.206
363.00,0.202
364.00,0.198
365.00,0.194
366.00,0.191
367.00,0.187
368.00,0.184
369.00,0.181
370.00,0.177
371.00,0.175
372.00,0.172
373.00,0.169
374.00,0.166
375.00,0.163
376.00,0.160
377.00,0.158
378.00,0.155
379.00,0.153
380.00,0.150
381.00,0.148
382.00,0.146
383.00,0.144
384.00,0.141
385.00,0.140
386.00,0.138
387.00,0.136
388.00,0.134
389.00,0.132
390.00,0.131
391.00,0.129
392.00,0.127
393.00,0.126
394.00,0.124
395.00,0.123
396.00,0.121
397.00,0.120
398.00,0.119
399.00,0.117
400.00,0.116
401.00,0.115
402.00,0.114
403.00,0.112
404.00,0.111
405.00,0.110
406.00,0.109
407.00,0.108
408.00,0.107
409.00,0.106
410.00,0.105
411.00,0.104
412.00,0.103
413.00,0.102
414.00,0.101
415.00,0.100
416.00,0.099
417.00,0.099
418.00,0.098
419.00,0.097
420.00,0.097
421.00,0.096
422.00,0.095
423.00,0.094
424.00,0.093
425.00,0.093
426.00,0.092
427.00,0.091
428.00,0.090
429.00,0.090
430.00,0.089
431.00,0.089
432.00,0.088
433.00,0.087
434.00,0.086
435.00,0.086
436.00,0.085
437.00,0.085
438.00,0.084
439.00,0.083
440.00,0.083
441.00,0.082
442.00,0.082
443.00,0.081
444.00,0.081
445.00,0.080
446.00,0.080
447.00,0.079
448.00,0.079
449.00,0.078
450.00,0.078
451.00,0.077
452.00,0.077
453.00,0.076
454.00,0.076
455.00,0.075
456.00,0.075
457.00,0.074
458.00,0.074
459.00,0.074
460.00,0.073
461.00,0.073
462.00,0.072
463.00,0.072
464.00,0.071
465.00,0.071
466.00,0.071
467.00,0.070
468.00,0.070
469.00,0.069
470.00,0.069
471.00,0.069
472.00,0.068
473.00,0.068
474.00,0.067
475.00,0.067
476.00,0.067
477.00,0.066
478.00,0.066
479.00,0.065
480.00,0.065
481.00,0.065
482.00,0.065
483.00,0.064
484.00,0.064
485.00,0.063
486.00,0.063
487.00,0.063
488.00,0.063
489.00,0.062
490.00,0.062
491.00,0.061
492.00,0.061
493.00,0.061
494.00,0.061
495.00,0.060
496.00,0.060
497.00,0.060
498.00,0.059
499.00,0.059
500.00,0.059
501.00,0.059
502.00,0.058
503.00,0.058
504.00,0.058
505.00,0.058
506.00,0.057
507.00,0.057
508.00,0.057
509.00,0.057
510.00,0.056
511.00,0.056
512.00,0.056
513.00,0.056
514.00,0.055
515.00,0.055
516.00,0.055
517.00,0.055
518.00,0.055
519.00,0.054
520.00,0.054
521.00,0.054
522.00,0.054
523.00,0.053
524.00,0.053
525.00,0.053
526.00,0.053
527.00,0.053
528.00,0.052
529.00,0.052
530.00,0.052
531.00,0.052
532.00,0.052
533.00,0.052
534.00,0.051
535.00,0.051
536.00,0.051
537.00,0.051
538.00,0.050
539.00,0.050
540.00,0.050
541.00,0.050
542.00,0.050
543.00,0.049
544.00,0.049
545.00,0.049
546.00,0.049
547.00,0.049
548.00,0.049
549.00,0.049
550.00,0.048
551.00,0.048
552.00,0.048
553.00,0.048
554.00,0.048
555.00,0.048
556.00,0.048
557.00,0.048
558.00,0.047
559.00,0.047
560.00,0.047
561.00,0.047
562.00,0.047
563.00,0.047
564.00,0.047
565.00,0.047
566.00,0.046
567.00,0.046
568.00,0.046
569.00,0.046
570.00,0.046
571.00,0.046
572.00,0.046
573.00,0.046
574.00,0.046
575.00,0.045
576.00,0.045
577.00,0.045
578.00,0.045
579.00,0.045
580.00,0.045
581.00,0.045
582.00,0.045
583.00,0.045
584.00,0.044
585.00,0.045
586.00,0.045
587.00,0.044
588.00,0.044
589.00,0.044
590.00,0.044
591.00,0.044
592.00,0.044
593.00,0.044
594.00,0.044
595.00,0.044
596.00,0.044
597.00,0.044
598.00,0.044
599.00,0.044
600.00,0.044
601.00,0.043
602.00,0.043
603.00,0.044
604.00,0.044
605.00,0.043
606.00,0.043
607.00,0.043
608.00,0.043
609.00,0.043
610.00,0.043
611.00,0.043
612.00,0.043
613.00,0.043
614.00,0.043
615.00,0.043
616.00,0.043
617.00,0.043
618.00,0.042
619.00,0.042
620.00,0.042
621.00,0.042
622.00,0.042
623.00,0.042
624.00,0.042
625.00,0.042
626.00,0.042
627.00,0.042
628.00,0.042
629.00,0.042
630.00,0.042
631.00,0.042
632.00,0.042
633.00,0.042
634.00,0.042
635.00,0.042
636.00,0.041
637.00,0.041
638.00,0.041
639.00,0.041
640.00,0.041
641.00,0.041
642.00,0.041
643.00,0.041
644.00,0.041
645.00,0.041
646.00,0.041
647.00,0.041
648.00,0.041
649.00,0.041
650.00,0.041
651.00,0.041
652.00,0.041
653.00,0.041
654.00,0.041
655.00,0.041
656.00,0.041
657.00,0.041
658.00,0.041
659.00,0.041
660.00,0.040
661.00,0.041
662.00,0.041
663.00,0.041
664.00,0.041
665.00,0.041
666.00,0.041
667.00,0.040
668.00,0.040
669.00,0.040
670.00,0.040
671.00,0.040
672.00,0.040
673.00,0.040
674.00,0.040
675.00,0.040
676.00,0.040
677.00,0.040
678.00,0.040
679.00,0.040
680.00,0.040
681.00,0.040
682.00,0.040
683.00,0.040
684.00,0.040
685.00,0.040
686.00,0.040
687.00,0.040
688.00,0.040
689.00,0.040
690.00,0.040
691.00,0.040
692.00,0.040
693.00,0.040
694.00,0.040
695.00,0.040
696.00,0.040
697.00,0.040
698.00,0.040
699.00,0.040
700.00,0.040
701.00,0.040
702.00,0.040
703.00,0.040
704.00,0.040
705.00,0.040
706.00,0.040
707.00,0.040
708.00,0.040
709.00,0.040
710.00,0.041
711.00,0.041
712.00,0.041
713.00,0.041
714.00,0.041
715.00,0.041
716.00,0.041
717.00,0.041
718.00,0.042
719.00,0.042
720.00,0.042
721.00,0.042
722.00,0.043
723.00,0.043
724.00,0.043
725.00,0.043
726.00,0.044
727.00,0.044
728.00,0.044
729.00,0.045
730.00,0.045
731.00,0.046
732.00,0.046
733.00,0.046
734.00,0.047
735.00,0.047
736.00,0.047
737.00,0.048
738.00,0.048
739.00,0.048
740.00,0.048
741.00,0.048
742.00,0.048
743.00,0.048
744.00,0.048
745.00,0.048
746.00,0.048
747.00,0.048
748.00,0.048
749.00,0.048
750.00,0.048
751.00,0.048
752.00,0.048
753.00,0.048
754.00,0.048
755.00,0.048
756.00,0.048
757.00,0.048
758.00,0.048
759.00,0.048
760.00,0.048
761.00,0.048
762.00,0.048
763.00,0.048
764.00,0.048
765.00,0.048
766.00,0.048
767.00,0.048
768.00,0.048
769.00,0.048
770.00,0.047
771.00,0.047
772.00,0.047
773.00,0.047
774.00,0.047
775.00,0.047
776.00,0.047
777.00,0.047
778.00,0.047
779.00,0.047
780.00,0.047
781.00,0.046
782.00,0.046
783.00,0.046
784.00,0.046
785.00,0.046
786.00,0.046
787.00,0.046
788.00,0.046
789.00,0.046
790.00,0.045
791.00,0.045
792.00,0.045
793.00,0.045
794.00,0.045
795.00,0.045
796.00,0.045
797.00,0.045
798.00,0.045
799.00,0.045
800.00,0.044
801.00,0.044
802.00,0.044
803.00,0.044
804.00,0.044
805.00,0.044
806.00,0.044
807.00,0.044
808.00,0.044
809.00,0.044
810.00,0.044
811.00,0.044
812.00,0.044
813.00,0.044
814.00,0.044
815.00,0.044
816.00,0.044
817.00,0.044
818.00,0.045
819.00,0.045
820.00,0.045
821.00,0.045
822.00,0.045
823.00,0.045
824.00,0.046
825.00,0.046
826.00,0.046
827.00,0.047
828.00,0.047
829.00,0.048
830.00,0.049
831.00,0.049
832.00,0.050
833.00,0.050
834.00,0.050
835.00,0.051
836.00,0.051
837.00,0.051
838.00,0.051
839.00,0.051
840.00,0.051
841.00,0.051
842.00,0.052
843.00,0.052
844.00,0.052
845.00,0.052
846.00,0.052
847.00,0.052
848.00,0.052
849.00,0.052
850.00,0.053
851.00,0.053
852.00,0.053
853.00,0.053
854.00,0.053
855.00,0.053
856.00,0.053
857.00,0.053
858.00,0.053
859.00,0.053
860.00,0.053
861.00,0.054
862.00,0.054
863.00,0.054
864.00,0.054
865.00,0.054
866.00,0.054
867.00,0.054
868.00,0.054
869.00,0.055
870.00,0.055
871.00,0.055
872.00,0.055
873.00,0.055
874.00,0.055
875.00,0.055
876.00,0.056
877.00,0.056
878.00,0.056
879.00,0.056
880.00,0.057
881.00,0.057
882.00,0.057
883.00,0.057
884.00,0.058
885.00,0.058
886.00,0.058
887.00,0.058
888.00,0.059
889.00,0.059
890.00,0.059
891.00,0.059
892.00,0.059
893.00,0.060
894.00,0.060
895.00,0.060
896.00,0.060
897.00,0.060
898.00,0.061
899.00,0.061
900.00,0.061
