"HelmClark_50x - RawData"
"Wavelength nm.","Abs."
190.00,2.630
191.00,3.240
192.00,3.138
193.00,3.179
194.00,3.181
195.00,3.434
196.00,3.272
197.00,3.344
198.00,3.492
199.00,3.513
200.00,3.596
201.00,3.556
202.00,3.407
203.00,3.313
204.00,3.266
205.00,3.180
206.00,3.050
207.00,2.928
208.00,2.819
209.00,2.697
210.00,2.578
211.00,2.475
212.00,2.369
213.00,2.257
214.00,2.160
215.00,2.068
216.00,1.973
217.00,1.877
218.00,1.787
219.00,1.698
220.00,1.613
221.00,1.537
222.00,1.462
223.00,1.391
224.00,1.320
225.00,1.251
226.00,1.184
227.00,1.115
228.00,1.050
229.00,0.991
230.00,0.937
231.00,0.888
232.00,0.844
233.00,0.805
234.00,0.772
235.00,0.742
236.00,0.717
237.00,0.695
238.00,0.678
239.00,0.663
240.00,0.651
241.00,0.642
242.00,0.635
243.00,0.631
244.00,0.627
245.00,0.626
246.00,0.626
247.00,0.627
248.00,0.629
249.00,0.631
250.00,0.634
251.00,0.639
252.00,0.643
253.00,0.647
254.00,0.652
255.00,0.656
256.00,0.661
257.00,0.663
258.00,0.665
259.00,0.666
260.00,0.666
261.00,0.666
262.00,0.666
263.00,0.667
264.00,0.667
265.00,0.666
266.00,0.665
267.00,0.663
268.00,0.659
269.00,0.655
270.00,0.649
271.00,0.643
272.00,0.636
273.00,0.628
274.00,0.619
275.00,0.609
276.00,0.598
277.00,0.586
278.00,0.573
279.00,0.559
280.00,0.545
281.00,0.530
282.00,0.515
283.00,0.498
284.00,0.482
285.00,0.464
286.00,0.447
287.00,0.430
288.00,0.412
289.00,0.394
290.00,0.375
291.00,0.357
292.00,0.342
293.00,0.328
294.00,0.317
295.00,0.307
296.00,0.298
297.00,0.291
298.00,0.284
299.00,0.278
300.00,0.272
301.00,0.268
302.00,0.264
303.00,0.260
304.00,0.257
305.00,0.254
306.00,0.252
307.00,0.249
308.00,0.247
309.00,0.245
310.00,0.243
311.00,0.242
312.00,0.240
313.00,0.239
314.00,0.237
315.00,0.236
316.00,0.234
317.00,0.233
318.00,0.231
319.00,0.229
320.00,0.227
321.00,0.225
322.00,0.223
323.00,0.220
324.00,0.218
325.00,0.215
326.00,0.212
327.00,0.209
328.00,0.206
329.00,0.203
330.00,0.199
331.00,0.196
332.00,0.192
333.00,0.189
334.00,0.184
335.00,0.181
336.00,0.177
337.00,0.174
338.00,0.170
339.00,0.166
340.00,0.162
341.00,0.157
342.00,0.153
343.00,0.150
344.00,0.146
345.00,0.142
346.00,0.139
347.00,0.136
348.00,0.132
349.00,0.129
350.00,0.126
351.00,0.123
352.00,0.120
353.00,0.117
354.00,0.114
355.00,0.112
356.00,0.109
357.00,0.107
358.00,0.104
359.00,0.102
360.00,0.100
361.00,0.098
362.00,0.096
363.00,0.094
364.00,0.092
365.00,0.091
366.00,0.089
367.00,0.087
368.00,0.086
369.00,0.084
370.00,0.083
371.00,0.082
372.00,0.080
373.00,0.079
374.00,0.077
375.00,0.076
376.00,0.075
377.00,0.074
378.00,0.073
379.00,0.071
380.00,0.071
381.00,0.070
382.00,0.069
383.00,0.068
384.00,0.067
385.00,0.066
386.00,0.065
387.00,0.064
388.00,0.064
389.00,0.063
390.00,0.062
391.00,0.062
392.00,0.061
393.00,0.060
394.00,0.060
395.00,0.059
396.00,0.059
397.00,0.058
398.00,0.058
399.00,0.057
400.00,0.057
401.00,0.056
402.00,0.056
403.00,0.056
404.00,0.055
405.00,0.055
406.00,0.054
407.00,0.054
408.00,0.054
409.00,0.054
410.00,0.053
411.00,0.053
412.00,0.053
413.00,0.052
414.00,0.052
415.00,0.052
416.00,0.051
417.00,0.052
418.00,0.051
419.00,0.051
420.00,0.051
421.00,0.051
422.00,0.051
423.00,0.050
424.00,0.050
425.00,0.050
426.00,0.050
427.00,0.050
428.00,0.050
429.00,0.049
430.00,0.049
431.00,0.049
432.00,0.049
433.00,0.049
434.00,0.049
435.00,0.049
436.00,0.049
437.00,0.048
438.00,0.048
439.00,0.048
440.00,0.048
441.00,0.048
442.00,0.048
443.00,0.048
444.00,0.048
445.00,0.047
446.00,0.047
447.00,0.047
448.00,0.047
449.00,0.047
450.00,0.047
451.00,0.047
452.00,0.047
453.00,0.047
454.00,0.047
455.00,0.047
456.00,0.047
457.00,0.046
458.00,0.046
459.00,0.046
460.00,0.046
461.00,0.046
462.00,0.046
463.00,0.046
464.00,0.046
465.00,0.046
466.00,0.046
467.00,0.046
468.00,0.046
469.00,0.046
470.00,0.045
471.00,0.045
472.00,0.045
473.00,0.045
474.00,0.045
475.00,0.045
476.00,0.045
477.00,0.045
478.00,0.045
479.00,0.045
480.00,0.045
481.00,0.045
482.00,0.045
483.00,0.045
484.00,0.045
485.00,0.044
486.00,0.044
487.00,0.044
488.00,0.044
489.00,0.044
490.00,0.044
491.00,0.044
492.00,0.044
493.00,0.044
494.00,0.044
495.00,0.044
496.00,0.044
497.00,0.044
498.00,0.044
499.00,0.044
500.00,0.044
501.00,0.044
502.00,0.044
503.00,0.043
504.00,0.043
505.00,0.043
506.00,0.043
507.00,0.043
508.00,0.043
509.00,0.043
510.00,0.043
511.00,0.043
512.00,0.043
513.00,0.043
514.00,0.043
515.00,0.043
516.00,0.043
517.00,0.043
518.00,0.043
519.00,0.043
520.00,0.043
521.00,0.043
522.00,0.043
523.00,0.043
524.00,0.042
525.00,0.042
526.00,0.042
527.00,0.042
528.00,0.042
529.00,0.042
530.00,0.042
531.00,0.042
532.00,0.042
533.00,0.042
534.00,0.042
535.00,0.042
536.00,0.042
537.00,0.042
538.00,0.042
539.00,0.042
540.00,0.042
541.00,0.042
542.00,0.042
543.00,0.042
544.00,0.042
545.00,0.042
546.00,0.042
547.00,0.041
548.00,0.041
549.00,0.041
550.00,0.041
551.00,0.041
552.00,0.041
553.00,0.041
554.00,0.041
555.00,0.041
556.00,0.041
557.00,0.041
558.00,0.041
559.00,0.041
560.00,0.041
561.00,0.041
562.00,0.041
563.00,0.041
564.00,0.041
565.00,0.041
566.00,0.041
567.00,0.041
568.00,0.041
569.00,0.041
570.00,0.041
571.00,0.041
572.00,0.041
573.00,0.041
574.00,0.041
575.00,0.041
576.00,0.041
577.00,0.041
578.00,0.041
579.00,0.041
580.00,0.041
581.00,0.041
582.00,0.041
583.00,0.041
584.00,0.041
585.00,0.041
586.00,0.041
587.00,0.041
588.00,0.041
589.00,0.041
590.00,0.041
591.00,0.041
592.00,0.041
593.00,0.041
594.00,0.041
595.00,0.041
596.00,0.041
597.00,0.041
598.00,0.041
599.00,0.041
600.00,0.041
601.00,0.041
602.00,0.041
603.00,0.041
604.00,0.041
605.00,0.041
606.00,0.041
607.00,0.041
608.00,0.041
609.00,0.041
610.00,0.041
611.00,0.040
612.00,0.040
613.00,0.040
614.00,0.040
615.00,0.040
616.00,0.040
617.00,0.040
618.00,0.040
619.00,0.040
620.00,0.040
621.00,0.040
622.00,0.040
623.00,0.040
624.00,0.040
625.00,0.040
626.00,0.040
627.00,0.040
628.00,0.040
629.00,0.040
630.00,0.040
631.00,0.040
632.00,0.040
633.00,0.040
634.00,0.040
635.00,0.040
636.00,0.040
637.00,0.040
638.00,0.040
639.00,0.040
640.00,0.040
641.00,0.040
642.00,0.040
643.00,0.040
644.00,0.040
645.00,0.040
646.00,0.040
647.00,0.040
648.00,0.040
649.00,0.040
650.00,0.040
651.00,0.040
652.00,0.040
653.00,0.040
654.00,0.040
655.00,0.040
656.00,0.040
657.00,0.040
658.00,0.040
659.00,0.040
660.00,0.040
661.00,0.040
662.00,0.040
663.00,0.040
664.00,0.040
665.00,0.040
666.00,0.040
667.00,0.040
668.00,0.040
669.00,0.040
670.00,0.040
671.00,0.040
672.00,0.040
673.00,0.040
674.00,0.040
675.00,0.040
676.00,0.040
677.00,0.040
678.00,0.040
679.00,0.040
680.00,0.040
681.00,0.040
682.00,0.040
683.00,0.040
684.00,0.040
685.00,0.040
686.00,0.040
687.00,0.040
688.00,0.040
689.00,0.040
690.00,0.040
691.00,0.040
692.00,0.040
693.00,0.040
694.00,0.040
695.00,0.040
696.00,0.040
697.00,0.040
698.00,0.040
699.00,0.040
700.00,0.040
701.00,0.040
702.00,0.040
703.00,0.040
704.00,0.040
705.00,0.040
706.00,0.041
707.00,0.041
708.00,0.041
709.00,0.041
710.00,0.041
711.00,0.041
712.00,0.041
713.00,0.041
714.00,0.041
715.00,0.042
716.00,0.042
717.00,0.042
718.00,0.042
719.00,0.042
720.00,0.042
721.00,0.043
722.00,0.043
723.00,0.043
724.00,0.043
725.00,0.044
726.00,0.044
727.00,0.044
728.00,0.045
729.00,0.045
730.00,0.046
731.00,0.046
732.00,0.047
733.00,0.047
734.00,0.047
735.00,0.048
736.00,0.048
737.00,0.048
738.00,0.049
739.00,0.049
740.00,0.049
741.00,0.049
742.00,0.049
743.00,0.049
744.00,0.049
745.00,0.049
746.00,0.049
747.00,0.049
748.00,0.049
749.00,0.049
750.00,0.049
751.00,0.049
752.00,0.049
753.00,0.049
754.00,0.049
755.00,0.049
756.00,0.049
757.00,0.049
758.00,0.049
759.00,0.049
760.00,0.049
761.00,0.049
762.00,0.049
763.00,0.049
764.00,0.049
765.00,0.049
766.00,0.049
767.00,0.048
768.00,0.048
769.00,0.048
770.00,0.048
771.00,0.048
772.00,0.048
773.00,0.048
774.00,0.048
775.00,0.048
776.00,0.048
777.00,0.048
778.00,0.048
779.00,0.048
780.00,0.048
781.00,0.048
782.00,0.047
783.00,0.047
784.00,0.047
785.00,0.047
786.00,0.047
787.00,0.047
788.00,0.047
789.00,0.047
790.00,0.047
791.00,0.046
792.00,0.046
793.00,0.046
794.00,0.046
795.00,0.046
796.00,0.046
797.00,0.046
798.00,0.046
799.00,0.046
800.00,0.046
801.00,0.045
802.00,0.045
803.00,0.045
804.00,0.045
805.00,0.045
806.00,0.045
807.00,0.045
808.00,0.045
809.00,0.045
810.00,0.045
811.00,0.045
812.00,0.045
813.00,0.045
814.00,0.045
815.00,0.045
816.00,0.045
817.00,0.046
818.00,0.046
819.00,0.046
820.00,0.046
821.00,0.046
822.00,0.046
823.00,0.047
824.00,0.047
825.00,0.047
826.00,0.048
827.00,0.048
828.00,0.049
829.00,0.049
830.00,0.050
831.00,0.050
832.00,0.051
833.00,0.051
834.00,0.052
835.00,0.052
836.00,0.052
837.00,0.052
838.00,0.052
839.00,0.052
840.00,0.053
841.00,0.053
842.00,0.053
843.00,0.053
844.00,0.053
845.00,0.053
846.00,0.053
847.00,0.053
848.00,0.053
849.00,0.053
850.00,0.054
851.00,0.054
852.00,0.054
853.00,0.054
854.00,0.054
855.00,0.054
856.00,0.054
857.00,0.054
858.00,0.054
859.00,0.054
860.00,0.055
861.00,0.055
862.00,0.055
863.00,0.055
864.00,0.055
865.00,0.055
866.00,0.055
867.00,0.055
868.00,0.055
869.00,0.056
870.00,0.056
871.00,0.056
872.00,0.056
873.00,0.056
874.00,0.056
875.00,0.057
876.00,0.057
877.00,0.057
878.00,0.057
879.00,0.057
880.00,0.058
881.00,0.058
882.00,0.058
883.00,0.058
884.00,0.059
885.00,0.059
886.00,0.059
887.00,0.059
888.00,0.060
889.00,0.060
890.00,0.060
891.00,0.060
892.00,0.060
893.00,0.061
894.00,0.061
895.00,0.061
896.00,0.061
897.00,0.062
898.00,0.062
899.00,0.062
900.00,0.062
