"HelmSurelabrosse_25x - RawData"
"Wavelength nm.","Abs."
190.00,3.857
191.00,3.622
192.00,3.343
193.00,3.550
194.00,3.794
195.00,3.953
196.00,3.928
197.00,3.907
198.00,3.969
199.00,3.862
200.00,3.789
201.00,3.815
202.00,3.940
203.00,3.924
204.00,3.970
205.00,3.927
206.00,3.977
207.00,3.952
208.00,3.866
209.00,3.823
210.00,3.869
211.00,3.969
212.00,3.878
213.00,3.716
214.00,3.795
215.00,3.637
216.00,3.640
217.00,3.503
218.00,3.437
219.00,3.192
220.00,3.101
221.00,2.947
222.00,2.804
223.00,2.671
224.00,2.534
225.00,2.391
226.00,2.253
227.00,2.100
228.00,1.948
229.00,1.804
230.00,1.666
231.00,1.542
232.00,1.432
233.00,1.331
234.00,1.245
235.00,1.169
236.00,1.103
237.00,1.045
238.00,0.996
239.00,0.954
240.00,0.918
241.00,0.889
242.00,0.867
243.00,0.851
244.00,0.839
245.00,0.830
246.00,0.824
247.00,0.821
248.00,0.820
249.00,0.820
250.00,0.823
251.00,0.827
252.00,0.832
253.00,0.838
254.00,0.844
255.00,0.851
256.00,0.859
257.00,0.868
258.00,0.875
259.00,0.881
260.00,0.887
261.00,0.894
262.00,0.900
263.00,0.906
264.00,0.912
265.00,0.916
266.00,0.919
267.00,0.921
268.00,0.921
269.00,0.920
270.00,0.917
271.00,0.914
272.00,0.910
273.00,0.904
274.00,0.896
275.00,0.886
276.00,0.875
277.00,0.862
278.00,0.847
279.00,0.832
280.00,0.816
281.00,0.799
282.00,0.781
283.00,0.760
284.00,0.739
285.00,0.715
286.00,0.694
287.00,0.673
288.00,0.651
289.00,0.629
290.00,0.605
291.00,0.582
292.00,0.561
293.00,0.542
294.00,0.526
295.00,0.510
296.00,0.496
297.00,0.484
298.00,0.471
299.00,0.460
300.00,0.449
301.00,0.440
302.00,0.431
303.00,0.423
304.00,0.417
305.00,0.410
306.00,0.405
307.00,0.400
308.00,0.396
309.00,0.392
310.00,0.388
311.00,0.385
312.00,0.382
313.00,0.379
314.00,0.376
315.00,0.373
316.00,0.370
317.00,0.368
318.00,0.364
319.00,0.361
320.00,0.359
321.00,0.355
322.00,0.351
323.00,0.347
324.00,0.343
325.00,0.338
326.00,0.333
327.00,0.328
328.00,0.322
329.00,0.317
330.00,0.310
331.00,0.304
332.00,0.298
333.00,0.291
334.00,0.284
335.00,0.277
336.00,0.271
337.00,0.264
338.00,0.257
339.00,0.250
340.00,0.244
341.00,0.235
342.00,0.228
343.00,0.221
344.00,0.215
345.00,0.208
346.00,0.202
347.00,0.196
348.00,0.190
349.00,0.183
350.00,0.178
351.00,0.172
352.00,0.167
353.00,0.162
354.00,0.157
355.00,0.152
356.00,0.147
357.00,0.143
358.00,0.138
359.00,0.134
360.00,0.130
361.00,0.126
362.00,0.123
363.00,0.120
364.00,0.117
365.00,0.114
366.00,0.111
367.00,0.108
368.00,0.106
369.00,0.103
370.00,0.101
371.00,0.099
372.00,0.096
373.00,0.095
374.00,0.093
375.00,0.091
376.00,0.089
377.00,0.087
378.00,0.086
379.00,0.084
380.00,0.083
381.00,0.081
382.00,0.080
383.00,0.079
384.00,0.078
385.00,0.077
386.00,0.076
387.00,0.074
388.00,0.074
389.00,0.073
390.00,0.072
391.00,0.071
392.00,0.070
393.00,0.069
394.00,0.069
395.00,0.068
396.00,0.067
397.00,0.067
398.00,0.066
399.00,0.066
400.00,0.065
401.00,0.065
402.00,0.064
403.00,0.064
404.00,0.063
405.00,0.063
406.00,0.062
407.00,0.062
408.00,0.061
409.00,0.061
410.00,0.061
411.00,0.060
412.00,0.060
413.00,0.060
414.00,0.059
415.00,0.059
416.00,0.059
417.00,0.059
418.00,0.058
419.00,0.058
420.00,0.058
421.00,0.057
422.00,0.057
423.00,0.057
424.00,0.057
425.00,0.056
426.00,0.056
427.00,0.056
428.00,0.056
429.00,0.055
430.00,0.055
431.00,0.055
432.00,0.055
433.00,0.055
434.00,0.055
435.00,0.054
436.00,0.054
437.00,0.054
438.00,0.054
439.00,0.054
440.00,0.053
441.00,0.053
442.00,0.053
443.00,0.053
444.00,0.053
445.00,0.053
446.00,0.053
447.00,0.052
448.00,0.052
449.00,0.052
450.00,0.052
451.00,0.052
452.00,0.052
453.00,0.052
454.00,0.051
455.00,0.051
456.00,0.051
457.00,0.051
458.00,0.051
459.00,0.051
460.00,0.051
461.00,0.051
462.00,0.050
463.00,0.050
464.00,0.050
465.00,0.050
466.00,0.050
467.00,0.050
468.00,0.050
469.00,0.050
470.00,0.049
471.00,0.049
472.00,0.049
473.00,0.049
474.00,0.049
475.00,0.049
476.00,0.049
477.00,0.049
478.00,0.049
479.00,0.049
480.00,0.048
481.00,0.048
482.00,0.048
483.00,0.048
484.00,0.048
485.00,0.048
486.00,0.048
487.00,0.048
488.00,0.048
489.00,0.048
490.00,0.047
491.00,0.047
492.00,0.047
493.00,0.047
494.00,0.047
495.00,0.047
496.00,0.047
497.00,0.047
498.00,0.047
499.00,0.047
500.00,0.047
501.00,0.047
502.00,0.046
503.00,0.046
504.00,0.046
505.00,0.046
506.00,0.046
507.00,0.046
508.00,0.046
509.00,0.046
510.00,0.046
511.00,0.046
512.00,0.046
513.00,0.046
514.00,0.046
515.00,0.046
516.00,0.045
517.00,0.045
518.00,0.045
519.00,0.045
520.00,0.045
521.00,0.045
522.00,0.045
523.00,0.045
524.00,0.045
525.00,0.045
526.00,0.045
527.00,0.045
528.00,0.045
529.00,0.045
530.00,0.045
531.00,0.044
532.00,0.044
533.00,0.044
534.00,0.044
535.00,0.044
536.00,0.045
537.00,0.044
538.00,0.044
539.00,0.044
540.00,0.044
541.00,0.044
542.00,0.044
543.00,0.044
544.00,0.044
545.00,0.044
546.00,0.044
547.00,0.044
548.00,0.044
549.00,0.044
550.00,0.043
551.00,0.043
552.00,0.043
553.00,0.043
554.00,0.043
555.00,0.043
556.00,0.043
557.00,0.043
558.00,0.043
559.00,0.043
560.00,0.043
561.00,0.043
562.00,0.043
563.00,0.043
564.00,0.043
565.00,0.043
566.00,0.043
567.00,0.043
568.00,0.043
569.00,0.043
570.00,0.043
571.00,0.043
572.00,0.042
573.00,0.042
574.00,0.042
575.00,0.042
576.00,0.042
577.00,0.042
578.00,0.042
579.00,0.042
580.00,0.042
581.00,0.042
582.00,0.042
583.00,0.042
584.00,0.042
585.00,0.042
586.00,0.042
587.00,0.042
588.00,0.042
589.00,0.042
590.00,0.042
591.00,0.042
592.00,0.042
593.00,0.042
594.00,0.042
595.00,0.042
596.00,0.042
597.00,0.042
598.00,0.042
599.00,0.042
600.00,0.042
601.00,0.042
602.00,0.042
603.00,0.042
604.00,0.042
605.00,0.042
606.00,0.042
607.00,0.042
608.00,0.042
609.00,0.042
610.00,0.042
611.00,0.042
612.00,0.042
613.00,0.041
614.00,0.041
615.00,0.041
616.00,0.041
617.00,0.041
618.00,0.041
619.00,0.041
620.00,0.041
621.00,0.041
622.00,0.041
623.00,0.041
624.00,0.041
625.00,0.041
626.00,0.041
627.00,0.041
628.00,0.041
629.00,0.041
630.00,0.041
631.00,0.041
632.00,0.041
633.00,0.041
634.00,0.041
635.00,0.041
636.00,0.041
637.00,0.041
638.00,0.041
639.00,0.041
640.00,0.041
641.00,0.041
642.00,0.041
643.00,0.041
644.00,0.041
645.00,0.041
646.00,0.041
647.00,0.041
648.00,0.041
649.00,0.040
650.00,0.040
651.00,0.040
652.00,0.040
653.00,0.040
654.00,0.040
655.00,0.040
656.00,0.041
657.00,0.041
658.00,0.041
659.00,0.041
660.00,0.041
661.00,0.041
662.00,0.041
663.00,0.041
664.00,0.040
665.00,0.041
666.00,0.041
667.00,0.041
668.00,0.040
669.00,0.040
670.00,0.040
671.00,0.040
672.00,0.040
673.00,0.040
674.00,0.040
675.00,0.040
676.00,0.040
677.00,0.040
678.00,0.040
679.00,0.040
680.00,0.040
681.00,0.040
682.00,0.040
683.00,0.040
684.00,0.040
685.00,0.040
686.00,0.040
687.00,0.040
688.00,0.040
689.00,0.040
690.00,0.040
691.00,0.040
692.00,0.040
693.00,0.040
694.00,0.041
695.00,0.041
696.00,0.040
697.00,0.041
698.00,0.041
699.00,0.041
700.00,0.041
701.00,0.041
702.00,0.041
703.00,0.041
704.00,0.041
705.00,0.041
706.00,0.041
707.00,0.041
708.00,0.041
709.00,0.041
710.00,0.041
711.00,0.041
712.00,0.042
713.00,0.042
714.00,0.042
715.00,0.042
716.00,0.042
717.00,0.042
718.00,0.042
719.00,0.043
720.00,0.043
721.00,0.043
722.00,0.043
723.00,0.044
724.00,0.044
725.00,0.044
726.00,0.044
727.00,0.045
728.00,0.045
729.00,0.046
730.00,0.046
731.00,0.046
732.00,0.047
733.00,0.047
734.00,0.048
735.00,0.048
736.00,0.048
737.00,0.049
738.00,0.049
739.00,0.049
740.00,0.049
741.00,0.049
742.00,0.049
743.00,0.049
744.00,0.049
745.00,0.049
746.00,0.049
747.00,0.049
748.00,0.049
749.00,0.049
750.00,0.049
751.00,0.049
752.00,0.049
753.00,0.049
754.00,0.049
755.00,0.049
756.00,0.049
757.00,0.049
758.00,0.049
759.00,0.049
760.00,0.049
761.00,0.049
762.00,0.049
763.00,0.049
764.00,0.049
765.00,0.049
766.00,0.049
767.00,0.049
768.00,0.049
769.00,0.049
770.00,0.048
771.00,0.048
772.00,0.048
773.00,0.048
774.00,0.048
775.00,0.048
776.00,0.048
777.00,0.048
778.00,0.048
779.00,0.048
780.00,0.048
781.00,0.048
782.00,0.048
783.00,0.048
784.00,0.047
785.00,0.047
786.00,0.047
787.00,0.047
788.00,0.047
789.00,0.047
790.00,0.047
791.00,0.047
792.00,0.047
793.00,0.047
794.00,0.046
795.00,0.046
796.00,0.046
797.00,0.046
798.00,0.046
799.00,0.046
800.00,0.046
801.00,0.046
802.00,0.046
803.00,0.046
804.00,0.046
805.00,0.046
806.00,0.045
807.00,0.045
808.00,0.045
809.00,0.045
810.00,0.045
811.00,0.045
812.00,0.045
813.00,0.045
814.00,0.046
815.00,0.046
816.00,0.046
817.00,0.046
818.00,0.046
819.00,0.046
820.00,0.046
821.00,0.046
822.00,0.047
823.00,0.047
824.00,0.047
825.00,0.047
826.00,0.048
827.00,0.048
828.00,0.049
829.00,0.049
830.00,0.050
831.00,0.051
832.00,0.051
833.00,0.052
834.00,0.052
835.00,0.052
836.00,0.052
837.00,0.053
838.00,0.053
839.00,0.053
840.00,0.053
841.00,0.053
842.00,0.053
843.00,0.053
844.00,0.053
845.00,0.053
846.00,0.054
847.00,0.054
848.00,0.054
849.00,0.054
850.00,0.054
851.00,0.054
852.00,0.054
853.00,0.055
854.00,0.055
855.00,0.055
856.00,0.055
857.00,0.055
858.00,0.055
859.00,0.055
860.00,0.055
861.00,0.055
862.00,0.055
863.00,0.056
864.00,0.056
865.00,0.056
866.00,0.056
867.00,0.056
868.00,0.056
869.00,0.056
870.00,0.057
871.00,0.057
872.00,0.057
873.00,0.057
874.00,0.057
875.00,0.058
876.00,0.058
877.00,0.058
878.00,0.058
879.00,0.058
880.00,0.058
881.00,0.059
882.00,0.059
883.00,0.059
884.00,0.060
885.00,0.060
886.00,0.060
887.00,0.060
888.00,0.061
889.00,0.061
890.00,0.061
891.00,0.061
892.00,0.061
893.00,0.062
894.00,0.062
895.00,0.062
896.00,0.062
897.00,0.063
898.00,0.063
899.00,0.063
900.00,0.063
