"HopfenstarkGose50x - RawData"
"Wavelength nm.","Abs."
190.00,3.065
191.00,3.335
192.00,3.400
193.00,3.524
194.00,3.362
195.00,3.452
196.00,3.665
197.00,3.597
198.00,3.619
199.00,3.632
200.00,3.326
201.00,3.127
202.00,3.004
203.00,2.874
204.00,2.728
205.00,2.581
206.00,2.440
207.00,2.294
208.00,2.172
209.00,2.053
210.00,1.951
211.00,1.854
212.00,1.761
213.00,1.675
214.00,1.592
215.00,1.518
216.00,1.444
217.00,1.373
218.00,1.305
219.00,1.238
220.00,1.173
221.00,1.113
222.00,1.054
223.00,0.995
224.00,0.936
225.00,0.878
226.00,0.820
227.00,0.761
228.00,0.704
229.00,0.650
230.00,0.601
231.00,0.557
232.00,0.518
233.00,0.483
234.00,0.453
235.00,0.429
236.00,0.408
237.00,0.392
238.00,0.379
239.00,0.369
240.00,0.362
241.00,0.357
242.00,0.354
243.00,0.353
244.00,0.353
245.00,0.354
246.00,0.355
247.00,0.358
248.00,0.360
249.00,0.363
250.00,0.366
251.00,0.369
252.00,0.372
253.00,0.374
254.00,0.377
255.00,0.380
256.00,0.382
257.00,0.384
258.00,0.386
259.00,0.386
260.00,0.387
261.00,0.387
262.00,0.388
263.00,0.388
264.00,0.388
265.00,0.388
266.00,0.388
267.00,0.387
268.00,0.385
269.00,0.383
270.00,0.380
271.00,0.377
272.00,0.373
273.00,0.368
274.00,0.363
275.00,0.357
276.00,0.351
277.00,0.344
278.00,0.336
279.00,0.328
280.00,0.321
281.00,0.312
282.00,0.304
283.00,0.293
284.00,0.283
285.00,0.272
286.00,0.262
287.00,0.253
288.00,0.243
289.00,0.234
290.00,0.223
291.00,0.213
292.00,0.204
293.00,0.196
294.00,0.188
295.00,0.182
296.00,0.176
297.00,0.171
298.00,0.165
299.00,0.161
300.00,0.157
301.00,0.153
302.00,0.150
303.00,0.147
304.00,0.145
305.00,0.143
306.00,0.141
307.00,0.139
308.00,0.138
309.00,0.136
310.00,0.135
311.00,0.134
312.00,0.133
313.00,0.132
314.00,0.132
315.00,0.131
316.00,0.131
317.00,0.130
318.00,0.129
319.00,0.128
320.00,0.128
321.00,0.127
322.00,0.126
323.00,0.125
324.00,0.124
325.00,0.123
326.00,0.122
327.00,0.121
328.00,0.119
329.00,0.118
330.00,0.116
331.00,0.115
332.00,0.113
333.00,0.112
334.00,0.110
335.00,0.108
336.00,0.107
337.00,0.105
338.00,0.104
339.00,0.102
340.00,0.100
341.00,0.098
342.00,0.096
343.00,0.094
344.00,0.093
345.00,0.091
346.00,0.090
347.00,0.088
348.00,0.086
349.00,0.084
350.00,0.083
351.00,0.082
352.00,0.080
353.00,0.079
354.00,0.077
355.00,0.076
356.00,0.074
357.00,0.073
358.00,0.072
359.00,0.071
360.00,0.070
361.00,0.069
362.00,0.068
363.00,0.067
364.00,0.066
365.00,0.065
366.00,0.064
367.00,0.063
368.00,0.062
369.00,0.062
370.00,0.061
371.00,0.060
372.00,0.060
373.00,0.059
374.00,0.059
375.00,0.058
376.00,0.057
377.00,0.057
378.00,0.056
379.00,0.056
380.00,0.055
381.00,0.055
382.00,0.055
383.00,0.054
384.00,0.054
385.00,0.054
386.00,0.054
387.00,0.053
388.00,0.053
389.00,0.053
390.00,0.052
391.00,0.052
392.00,0.052
393.00,0.052
394.00,0.052
395.00,0.051
396.00,0.051
397.00,0.051
398.00,0.051
399.00,0.050
400.00,0.050
401.00,0.050
402.00,0.050
403.00,0.050
404.00,0.050
405.00,0.049
406.00,0.049
407.00,0.049
408.00,0.049
409.00,0.049
410.00,0.049
411.00,0.049
412.00,0.049
413.00,0.049
414.00,0.049
415.00,0.048
416.00,0.048
417.00,0.048
418.00,0.048
419.00,0.048
420.00,0.048
421.00,0.048
422.00,0.048
423.00,0.048
424.00,0.048
425.00,0.048
426.00,0.048
427.00,0.047
428.00,0.047
429.00,0.047
430.00,0.047
431.00,0.047
432.00,0.047
433.00,0.047
434.00,0.047
435.00,0.047
436.00,0.047
437.00,0.047
438.00,0.047
439.00,0.047
440.00,0.047
441.00,0.047
442.00,0.046
443.00,0.046
444.00,0.046
445.00,0.046
446.00,0.046
447.00,0.046
448.00,0.046
449.00,0.046
450.00,0.046
451.00,0.046
452.00,0.046
453.00,0.046
454.00,0.046
455.00,0.046
456.00,0.046
457.00,0.046
458.00,0.046
459.00,0.046
460.00,0.046
461.00,0.046
462.00,0.046
463.00,0.046
464.00,0.045
465.00,0.045
466.00,0.045
467.00,0.045
468.00,0.045
469.00,0.045
470.00,0.045
471.00,0.045
472.00,0.045
473.00,0.045
474.00,0.045
475.00,0.045
476.00,0.045
477.00,0.045
478.00,0.045
479.00,0.045
480.00,0.045
481.00,0.045
482.00,0.045
483.00,0.045
484.00,0.045
485.00,0.045
486.00,0.045
487.00,0.045
488.00,0.045
489.00,0.045
490.00,0.045
491.00,0.045
492.00,0.045
493.00,0.044
494.00,0.044
495.00,0.044
496.00,0.044
497.00,0.044
498.00,0.044
499.00,0.044
500.00,0.044
501.00,0.044
502.00,0.044
503.00,0.044
504.00,0.044
505.00,0.044
506.00,0.044
507.00,0.044
508.00,0.044
509.00,0.044
510.00,0.044
511.00,0.044
512.00,0.044
513.00,0.044
514.00,0.044
515.00,0.044
516.00,0.044
517.00,0.044
518.00,0.044
519.00,0.044
520.00,0.044
521.00,0.044
522.00,0.044
523.00,0.044
524.00,0.043
525.00,0.044
526.00,0.044
527.00,0.044
528.00,0.044
529.00,0.043
530.00,0.043
531.00,0.043
532.00,0.043
533.00,0.043
534.00,0.043
535.00,0.043
536.00,0.044
537.00,0.043
538.00,0.043
539.00,0.043
540.00,0.043
541.00,0.043
542.00,0.043
543.00,0.043
544.00,0.043
545.00,0.043
546.00,0.043
547.00,0.043
548.00,0.043
549.00,0.043
550.00,0.043
551.00,0.043
552.00,0.043
553.00,0.043
554.00,0.043
555.00,0.043
556.00,0.043
557.00,0.043
558.00,0.043
559.00,0.043
560.00,0.043
561.00,0.043
562.00,0.043
563.00,0.043
564.00,0.043
565.00,0.043
566.00,0.043
567.00,0.043
568.00,0.042
569.00,0.043
570.00,0.043
571.00,0.043
572.00,0.043
573.00,0.043
574.00,0.042
575.00,0.042
576.00,0.042
577.00,0.042
578.00,0.043
579.00,0.042
580.00,0.042
581.00,0.042
582.00,0.042
583.00,0.042
584.00,0.042
585.00,0.042
586.00,0.042
587.00,0.042
588.00,0.042
589.00,0.042
590.00,0.042
591.00,0.042
592.00,0.042
593.00,0.042
594.00,0.042
595.00,0.042
596.00,0.042
597.00,0.042
598.00,0.043
599.00,0.043
600.00,0.043
601.00,0.043
602.00,0.043
603.00,0.043
604.00,0.043
605.00,0.043
606.00,0.043
607.00,0.043
608.00,0.043
609.00,0.043
610.00,0.043
611.00,0.043
612.00,0.043
613.00,0.043
614.00,0.043
615.00,0.043
616.00,0.043
617.00,0.043
618.00,0.043
619.00,0.043
620.00,0.043
621.00,0.043
622.00,0.043
623.00,0.042
624.00,0.042
625.00,0.043
626.00,0.042
627.00,0.042
628.00,0.042
629.00,0.042
630.00,0.042
631.00,0.042
632.00,0.042
633.00,0.042
634.00,0.042
635.00,0.042
636.00,0.042
637.00,0.042
638.00,0.042
639.00,0.042
640.00,0.042
641.00,0.042
642.00,0.042
643.00,0.042
644.00,0.042
645.00,0.042
646.00,0.042
647.00,0.042
648.00,0.042
649.00,0.042
650.00,0.042
651.00,0.042
652.00,0.042
653.00,0.042
654.00,0.042
655.00,0.042
656.00,0.042
657.00,0.042
658.00,0.042
659.00,0.043
660.00,0.043
661.00,0.043
662.00,0.043
663.00,0.043
664.00,0.043
665.00,0.043
666.00,0.043
667.00,0.043
668.00,0.043
669.00,0.043
670.00,0.043
671.00,0.043
672.00,0.043
673.00,0.043
674.00,0.043
675.00,0.043
676.00,0.043
677.00,0.043
678.00,0.043
679.00,0.043
680.00,0.042
681.00,0.043
682.00,0.043
683.00,0.043
684.00,0.043
685.00,0.043
686.00,0.043
687.00,0.043
688.00,0.043
689.00,0.043
690.00,0.043
691.00,0.043
692.00,0.043
693.00,0.043
694.00,0.043
695.00,0.043
696.00,0.043
697.00,0.043
698.00,0.043
699.00,0.043
700.00,0.043
701.00,0.043
702.00,0.043
703.00,0.043
704.00,0.043
705.00,0.043
706.00,0.043
707.00,0.044
708.00,0.044
709.00,0.044
710.00,0.044
711.00,0.044
712.00,0.044
713.00,0.044
714.00,0.044
715.00,0.045
716.00,0.045
717.00,0.045
718.00,0.045
719.00,0.045
720.00,0.046
721.00,0.046
722.00,0.046
723.00,0.046
724.00,0.047
725.00,0.047
726.00,0.047
727.00,0.048
728.00,0.048
729.00,0.048
730.00,0.049
731.00,0.049
732.00,0.050
733.00,0.050
734.00,0.051
735.00,0.051
736.00,0.051
737.00,0.052
738.00,0.052
739.00,0.052
740.00,0.052
741.00,0.052
742.00,0.052
743.00,0.052
744.00,0.052
745.00,0.052
746.00,0.052
747.00,0.052
748.00,0.052
749.00,0.052
750.00,0.052
751.00,0.052
752.00,0.052
753.00,0.052
754.00,0.052
755.00,0.052
756.00,0.052
757.00,0.052
758.00,0.052
759.00,0.052
760.00,0.052
761.00,0.052
762.00,0.052
763.00,0.052
764.00,0.052
765.00,0.052
766.00,0.052
767.00,0.052
768.00,0.052
769.00,0.052
770.00,0.052
771.00,0.052
772.00,0.052
773.00,0.052
774.00,0.051
775.00,0.051
776.00,0.051
777.00,0.051
778.00,0.051
779.00,0.051
780.00,0.051
781.00,0.051
782.00,0.051
783.00,0.051
784.00,0.051
785.00,0.050
786.00,0.050
787.00,0.050
788.00,0.050
789.00,0.050
790.00,0.050
791.00,0.050
792.00,0.050
793.00,0.050
794.00,0.049
795.00,0.049
796.00,0.049
797.00,0.049
798.00,0.049
799.00,0.049
800.00,0.049
801.00,0.049
802.00,0.049
803.00,0.049
804.00,0.049
805.00,0.049
806.00,0.049
807.00,0.049
808.00,0.049
809.00,0.049
810.00,0.049
811.00,0.049
812.00,0.049
813.00,0.049
814.00,0.049
815.00,0.049
816.00,0.049
817.00,0.049
818.00,0.049
819.00,0.049
820.00,0.049
821.00,0.050
822.00,0.050
823.00,0.050
824.00,0.050
825.00,0.051
826.00,0.051
827.00,0.052
828.00,0.052
829.00,0.053
830.00,0.053
831.00,0.054
832.00,0.054
833.00,0.055
834.00,0.055
835.00,0.055
836.00,0.056
837.00,0.056
838.00,0.056
839.00,0.056
840.00,0.056
841.00,0.056
842.00,0.056
843.00,0.056
844.00,0.057
845.00,0.057
846.00,0.057
847.00,0.057
848.00,0.057
849.00,0.057
850.00,0.057
851.00,0.057
852.00,0.058
853.00,0.058
854.00,0.058
855.00,0.058
856.00,0.058
857.00,0.058
858.00,0.058
859.00,0.058
860.00,0.058
861.00,0.059
862.00,0.059
863.00,0.059
864.00,0.059
865.00,0.059
866.00,0.059
867.00,0.059
868.00,0.059
869.00,0.060
870.00,0.060
871.00,0.060
872.00,0.060
873.00,0.060
874.00,0.060
875.00,0.061
876.00,0.061
877.00,0.061
878.00,0.061
879.00,0.061
880.00,0.062
881.00,0.062
882.00,0.062
883.00,0.062
884.00,0.063
885.00,0.063
886.00,0.063
887.00,0.063
888.00,0.064
889.00,0.064
890.00,0.064
891.00,0.064
892.00,0.065
893.00,0.065
894.00,0.065
895.00,0.065
896.00,0.066
897.00,0.066
898.00,0.066
899.00,0.066
900.00,0.067
