"APACLASSIQUE50x - RawData"
"Wavelength nm.","Abs."
190.00,2.910
191.00,3.530
192.00,3.647
193.00,3.548
194.00,3.676
195.00,3.658
196.00,3.775
197.00,3.698
198.00,3.733
199.00,3.672
200.00,3.773
201.00,3.755
202.00,3.905
203.00,3.794
204.00,3.884
205.00,3.773
206.00,3.714
207.00,3.688
208.00,3.816
209.00,3.665
210.00,3.524
211.00,3.472
212.00,3.304
213.00,3.158
214.00,3.062
215.00,2.940
216.00,2.826
217.00,2.672
218.00,2.561
219.00,2.449
220.00,2.313
221.00,2.201
222.00,2.093
223.00,1.989
224.00,1.879
225.00,1.776
226.00,1.676
227.00,1.574
228.00,1.478
229.00,1.391
230.00,1.308
231.00,1.231
232.00,1.164
233.00,1.104
234.00,1.051
235.00,1.007
236.00,0.970
237.00,0.938
238.00,0.912
239.00,0.891
240.00,0.874
241.00,0.861
242.00,0.853
243.00,0.846
244.00,0.842
245.00,0.840
246.00,0.840
247.00,0.841
248.00,0.843
249.00,0.845
250.00,0.849
251.00,0.853
252.00,0.858
253.00,0.863
254.00,0.868
255.00,0.872
256.00,0.877
257.00,0.881
258.00,0.884
259.00,0.885
260.00,0.886
261.00,0.887
262.00,0.887
263.00,0.888
264.00,0.888
265.00,0.887
266.00,0.886
267.00,0.885
268.00,0.882
269.00,0.878
270.00,0.871
271.00,0.863
272.00,0.853
273.00,0.842
274.00,0.830
275.00,0.817
276.00,0.802
277.00,0.788
278.00,0.772
279.00,0.756
280.00,0.739
281.00,0.721
282.00,0.702
283.00,0.681
284.00,0.660
285.00,0.637
286.00,0.616
287.00,0.596
288.00,0.575
289.00,0.554
290.00,0.531
291.00,0.510
292.00,0.491
293.00,0.474
294.00,0.460
295.00,0.447
296.00,0.436
297.00,0.426
298.00,0.418
299.00,0.409
300.00,0.402
301.00,0.396
302.00,0.390
303.00,0.385
304.00,0.381
305.00,0.377
306.00,0.373
307.00,0.369
308.00,0.365
309.00,0.362
310.00,0.359
311.00,0.356
312.00,0.353
313.00,0.351
314.00,0.348
315.00,0.345
316.00,0.343
317.00,0.340
318.00,0.337
319.00,0.333
320.00,0.330
321.00,0.326
322.00,0.322
323.00,0.319
324.00,0.314
325.00,0.310
326.00,0.305
327.00,0.300
328.00,0.295
329.00,0.290
330.00,0.284
331.00,0.279
332.00,0.273
333.00,0.267
334.00,0.261
335.00,0.255
336.00,0.250
337.00,0.244
338.00,0.238
339.00,0.232
340.00,0.226
341.00,0.219
342.00,0.213
343.00,0.207
344.00,0.202
345.00,0.196
346.00,0.191
347.00,0.186
348.00,0.181
349.00,0.177
350.00,0.172
351.00,0.168
352.00,0.163
353.00,0.159
354.00,0.155
355.00,0.151
356.00,0.148
357.00,0.144
358.00,0.140
359.00,0.137
360.00,0.134
361.00,0.131
362.00,0.129
363.00,0.126
364.00,0.124
365.00,0.121
366.00,0.119
367.00,0.117
368.00,0.115
369.00,0.113
370.00,0.111
371.00,0.109
372.00,0.107
373.00,0.106
374.00,0.104
375.00,0.102
376.00,0.101
377.00,0.099
378.00,0.098
379.00,0.096
380.00,0.095
381.00,0.093
382.00,0.092
383.00,0.091
384.00,0.090
385.00,0.089
386.00,0.088
387.00,0.087
388.00,0.086
389.00,0.085
390.00,0.084
391.00,0.083
392.00,0.082
393.00,0.081
394.00,0.080
395.00,0.080
396.00,0.079
397.00,0.078
398.00,0.077
399.00,0.077
400.00,0.076
401.00,0.076
402.00,0.075
403.00,0.074
404.00,0.074
405.00,0.073
406.00,0.073
407.00,0.072
408.00,0.072
409.00,0.071
410.00,0.071
411.00,0.070
412.00,0.070
413.00,0.070
414.00,0.069
415.00,0.069
416.00,0.068
417.00,0.068
418.00,0.068
419.00,0.068
420.00,0.067
421.00,0.067
422.00,0.067
423.00,0.067
424.00,0.066
425.00,0.066
426.00,0.066
427.00,0.065
428.00,0.065
429.00,0.065
430.00,0.065
431.00,0.065
432.00,0.064
433.00,0.064
434.00,0.064
435.00,0.064
436.00,0.063
437.00,0.063
438.00,0.063
439.00,0.063
440.00,0.063
441.00,0.063
442.00,0.062
443.00,0.062
444.00,0.062
445.00,0.062
446.00,0.062
447.00,0.062
448.00,0.061
449.00,0.061
450.00,0.061
451.00,0.061
452.00,0.061
453.00,0.061
454.00,0.061
455.00,0.060
456.00,0.060
457.00,0.060
458.00,0.060
459.00,0.060
460.00,0.060
461.00,0.060
462.00,0.059
463.00,0.059
464.00,0.059
465.00,0.059
466.00,0.059
467.00,0.059
468.00,0.059
469.00,0.058
470.00,0.058
471.00,0.058
472.00,0.058
473.00,0.058
474.00,0.058
475.00,0.058
476.00,0.058
477.00,0.057
478.00,0.057
479.00,0.057
480.00,0.057
481.00,0.057
482.00,0.057
483.00,0.057
484.00,0.057
485.00,0.057
486.00,0.056
487.00,0.056
488.00,0.056
489.00,0.056
490.00,0.056
491.00,0.056
492.00,0.056
493.00,0.056
494.00,0.055
495.00,0.055
496.00,0.055
497.00,0.055
498.00,0.055
499.00,0.055
500.00,0.055
501.00,0.055
502.00,0.055
503.00,0.054
504.00,0.054
505.00,0.054
506.00,0.054
507.00,0.054
508.00,0.054
509.00,0.054
510.00,0.054
511.00,0.054
512.00,0.054
513.00,0.054
514.00,0.053
515.00,0.053
516.00,0.053
517.00,0.053
518.00,0.053
519.00,0.053
520.00,0.053
521.00,0.053
522.00,0.053
523.00,0.053
524.00,0.052
525.00,0.052
526.00,0.052
527.00,0.052
528.00,0.052
529.00,0.052
530.00,0.052
531.00,0.052
532.00,0.052
533.00,0.052
534.00,0.052
535.00,0.052
536.00,0.052
537.00,0.051
538.00,0.051
539.00,0.051
540.00,0.051
541.00,0.051
542.00,0.051
543.00,0.051
544.00,0.051
545.00,0.051
546.00,0.051
547.00,0.051
548.00,0.051
549.00,0.050
550.00,0.050
551.00,0.050
552.00,0.050
553.00,0.050
554.00,0.050
555.00,0.050
556.00,0.050
557.00,0.050
558.00,0.050
559.00,0.050
560.00,0.050
561.00,0.050
562.00,0.050
563.00,0.050
564.00,0.050
565.00,0.050
566.00,0.050
567.00,0.050
568.00,0.049
569.00,0.049
570.00,0.049
571.00,0.049
572.00,0.049
573.00,0.049
574.00,0.049
575.00,0.049
576.00,0.049
577.00,0.049
578.00,0.049
579.00,0.049
580.00,0.049
581.00,0.049
582.00,0.049
583.00,0.049
584.00,0.049
585.00,0.049
586.00,0.049
587.00,0.049
588.00,0.049
589.00,0.049
590.00,0.049
591.00,0.049
592.00,0.049
593.00,0.049
594.00,0.048
595.00,0.049
596.00,0.048
597.00,0.049
598.00,0.049
599.00,0.049
600.00,0.049
601.00,0.049
602.00,0.049
603.00,0.049
604.00,0.049
605.00,0.049
606.00,0.049
607.00,0.048
608.00,0.048
609.00,0.048
610.00,0.048
611.00,0.048
612.00,0.048
613.00,0.048
614.00,0.048
615.00,0.048
616.00,0.048
617.00,0.048
618.00,0.048
619.00,0.048
620.00,0.048
621.00,0.048
622.00,0.048
623.00,0.048
624.00,0.048
625.00,0.048
626.00,0.048
627.00,0.048
628.00,0.048
629.00,0.048
630.00,0.048
631.00,0.048
632.00,0.048
633.00,0.048
634.00,0.048
635.00,0.048
636.00,0.048
637.00,0.047
638.00,0.047
639.00,0.047
640.00,0.047
641.00,0.047
642.00,0.047
643.00,0.047
644.00,0.047
645.00,0.047
646.00,0.047
647.00,0.047
648.00,0.047
649.00,0.047
650.00,0.047
651.00,0.047
652.00,0.047
653.00,0.047
654.00,0.047
655.00,0.047
656.00,0.047
657.00,0.047
658.00,0.047
659.00,0.047
660.00,0.047
661.00,0.047
662.00,0.047
663.00,0.047
664.00,0.047
665.00,0.047
666.00,0.047
667.00,0.047
668.00,0.047
669.00,0.047
670.00,0.047
671.00,0.047
672.00,0.047
673.00,0.046
674.00,0.046
675.00,0.046
676.00,0.046
677.00,0.046
678.00,0.046
679.00,0.046
680.00,0.046
681.00,0.046
682.00,0.046
683.00,0.046
684.00,0.046
685.00,0.046
686.00,0.046
687.00,0.046
688.00,0.046
689.00,0.046
690.00,0.046
691.00,0.046
692.00,0.046
693.00,0.046
694.00,0.046
695.00,0.046
696.00,0.046
697.00,0.046
698.00,0.046
699.00,0.046
700.00,0.046
701.00,0.046
702.00,0.047
703.00,0.047
704.00,0.047
705.00,0.047
706.00,0.047
707.00,0.047
708.00,0.047
709.00,0.047
710.00,0.047
711.00,0.047
712.00,0.047
713.00,0.048
714.00,0.048
715.00,0.048
716.00,0.048
717.00,0.048
718.00,0.048
719.00,0.048
720.00,0.048
721.00,0.049
722.00,0.049
723.00,0.049
724.00,0.049
725.00,0.050
726.00,0.050
727.00,0.050
728.00,0.051
729.00,0.051
730.00,0.051
731.00,0.052
732.00,0.052
733.00,0.053
734.00,0.053
735.00,0.054
736.00,0.054
737.00,0.054
738.00,0.054
739.00,0.054
740.00,0.055
741.00,0.055
742.00,0.055
743.00,0.055
744.00,0.055
745.00,0.055
746.00,0.055
747.00,0.055
748.00,0.055
749.00,0.055
750.00,0.055
751.00,0.055
752.00,0.055
753.00,0.055
754.00,0.055
755.00,0.055
756.00,0.054
757.00,0.055
758.00,0.055
759.00,0.055
760.00,0.055
761.00,0.054
762.00,0.054
763.00,0.054
764.00,0.054
765.00,0.054
766.00,0.054
767.00,0.054
768.00,0.054
769.00,0.054
770.00,0.054
771.00,0.054
772.00,0.054
773.00,0.054
774.00,0.054
775.00,0.053
776.00,0.053
777.00,0.053
778.00,0.053
779.00,0.053
780.00,0.053
781.00,0.053
782.00,0.053
783.00,0.053
784.00,0.053
785.00,0.053
786.00,0.052
787.00,0.052
788.00,0.052
789.00,0.052
790.00,0.052
791.00,0.052
792.00,0.052
793.00,0.052
794.00,0.052
795.00,0.051
796.00,0.051
797.00,0.051
798.00,0.051
799.00,0.051
800.00,0.051
801.00,0.051
802.00,0.051
803.00,0.051
804.00,0.051
805.00,0.051
806.00,0.051
807.00,0.050
808.00,0.050
809.00,0.050
810.00,0.050
811.00,0.050
812.00,0.050
813.00,0.050
814.00,0.051
815.00,0.051
816.00,0.051
817.00,0.051
818.00,0.051
819.00,0.051
820.00,0.051
821.00,0.051
822.00,0.052
823.00,0.052
824.00,0.052
825.00,0.052
826.00,0.053
827.00,0.053
828.00,0.054
829.00,0.054
830.00,0.055
831.00,0.055
832.00,0.056
833.00,0.056
834.00,0.056
835.00,0.057
836.00,0.057
837.00,0.057
838.00,0.057
839.00,0.058
840.00,0.058
841.00,0.058
842.00,0.058
843.00,0.058
844.00,0.058
845.00,0.058
846.00,0.058
847.00,0.058
848.00,0.058
849.00,0.059
850.00,0.059
851.00,0.059
852.00,0.059
853.00,0.059
854.00,0.059
855.00,0.059
856.00,0.059
857.00,0.060
858.00,0.060
859.00,0.060
860.00,0.060
861.00,0.060
862.00,0.060
863.00,0.060
864.00,0.060
865.00,0.060
866.00,0.061
867.00,0.061
868.00,0.061
869.00,0.061
870.00,0.061
871.00,0.061
872.00,0.061
873.00,0.062
874.00,0.062
875.00,0.062
876.00,0.062
877.00,0.062
878.00,0.063
879.00,0.063
880.00,0.063
881.00,0.063
882.00,0.064
883.00,0.064
884.00,0.064
885.00,0.064
886.00,0.065
887.00,0.065
888.00,0.065
889.00,0.065
890.00,0.065
891.00,0.066
892.00,0.066
893.00,0.066
894.00,0.066
895.00,0.067
896.00,0.067
897.00,0.067
898.00,0.067
899.00,0.068
900.00,0.067
