"LaBitteATitbiAmos_50x - RawData"
"Wavelength nm.","Abs."
190.00,3.007
191.00,3.324
192.00,3.469
193.00,3.519
194.00,3.579
195.00,3.589
196.00,3.672
197.00,3.710
198.00,3.754
199.00,3.732
200.00,3.533
201.00,3.520
202.00,3.452
203.00,3.558
204.00,3.489
205.00,3.327
206.00,3.485
207.00,3.204
208.00,3.024
209.00,2.920
210.00,2.801
211.00,2.709
212.00,2.594
213.00,2.463
214.00,2.354
215.00,2.252
216.00,2.146
217.00,2.049
218.00,1.951
219.00,1.850
220.00,1.753
221.00,1.665
222.00,1.580
223.00,1.497
224.00,1.411
225.00,1.328
226.00,1.245
227.00,1.160
228.00,1.077
229.00,1.002
230.00,0.933
231.00,0.872
232.00,0.819
233.00,0.773
234.00,0.734
235.00,0.701
236.00,0.674
237.00,0.652
238.00,0.635
239.00,0.622
240.00,0.613
241.00,0.606
242.00,0.602
243.00,0.600
244.00,0.600
245.00,0.601
246.00,0.603
247.00,0.606
248.00,0.610
249.00,0.613
250.00,0.618
251.00,0.622
252.00,0.627
253.00,0.631
254.00,0.635
255.00,0.640
256.00,0.644
257.00,0.647
258.00,0.649
259.00,0.651
260.00,0.651
261.00,0.652
262.00,0.652
263.00,0.652
264.00,0.652
265.00,0.651
266.00,0.649
267.00,0.646
268.00,0.642
269.00,0.636
270.00,0.630
271.00,0.623
272.00,0.615
273.00,0.606
274.00,0.595
275.00,0.584
276.00,0.571
277.00,0.558
278.00,0.544
279.00,0.529
280.00,0.514
281.00,0.498
282.00,0.482
283.00,0.465
284.00,0.448
285.00,0.430
286.00,0.415
287.00,0.400
288.00,0.385
289.00,0.370
290.00,0.354
291.00,0.339
292.00,0.325
293.00,0.314
294.00,0.304
295.00,0.295
296.00,0.288
297.00,0.282
298.00,0.277
299.00,0.272
300.00,0.267
301.00,0.263
302.00,0.260
303.00,0.257
304.00,0.254
305.00,0.251
306.00,0.249
307.00,0.246
308.00,0.244
309.00,0.242
310.00,0.240
311.00,0.238
312.00,0.236
313.00,0.234
314.00,0.232
315.00,0.230
316.00,0.228
317.00,0.226
318.00,0.223
319.00,0.221
320.00,0.219
321.00,0.216
322.00,0.214
323.00,0.211
324.00,0.208
325.00,0.205
326.00,0.202
327.00,0.198
328.00,0.195
329.00,0.192
330.00,0.188
331.00,0.184
332.00,0.181
333.00,0.177
334.00,0.173
335.00,0.169
336.00,0.166
337.00,0.162
338.00,0.159
339.00,0.155
340.00,0.151
341.00,0.147
342.00,0.143
343.00,0.139
344.00,0.136
345.00,0.133
346.00,0.130
347.00,0.127
348.00,0.124
349.00,0.121
350.00,0.118
351.00,0.115
352.00,0.112
353.00,0.110
354.00,0.107
355.00,0.105
356.00,0.102
357.00,0.100
358.00,0.098
359.00,0.096
360.00,0.094
361.00,0.092
362.00,0.091
363.00,0.089
364.00,0.087
365.00,0.086
366.00,0.084
367.00,0.083
368.00,0.082
369.00,0.080
370.00,0.079
371.00,0.078
372.00,0.077
373.00,0.076
374.00,0.075
375.00,0.073
376.00,0.072
377.00,0.071
378.00,0.070
379.00,0.069
380.00,0.068
381.00,0.068
382.00,0.067
383.00,0.066
384.00,0.065
385.00,0.065
386.00,0.064
387.00,0.064
388.00,0.063
389.00,0.062
390.00,0.062
391.00,0.061
392.00,0.061
393.00,0.060
394.00,0.060
395.00,0.059
396.00,0.059
397.00,0.059
398.00,0.058
399.00,0.058
400.00,0.057
401.00,0.057
402.00,0.057
403.00,0.056
404.00,0.056
405.00,0.056
406.00,0.055
407.00,0.055
408.00,0.055
409.00,0.054
410.00,0.054
411.00,0.054
412.00,0.054
413.00,0.054
414.00,0.053
415.00,0.053
416.00,0.053
417.00,0.053
418.00,0.052
419.00,0.052
420.00,0.052
421.00,0.052
422.00,0.052
423.00,0.051
424.00,0.051
425.00,0.051
426.00,0.051
427.00,0.051
428.00,0.050
429.00,0.050
430.00,0.050
431.00,0.050
432.00,0.050
433.00,0.050
434.00,0.049
435.00,0.049
436.00,0.049
437.00,0.049
438.00,0.049
439.00,0.049
440.00,0.048
441.00,0.048
442.00,0.048
443.00,0.048
444.00,0.048
445.00,0.048
446.00,0.048
447.00,0.048
448.00,0.048
449.00,0.048
450.00,0.047
451.00,0.047
452.00,0.047
453.00,0.047
454.00,0.047
455.00,0.047
456.00,0.047
457.00,0.047
458.00,0.047
459.00,0.046
460.00,0.046
461.00,0.046
462.00,0.046
463.00,0.046
464.00,0.046
465.00,0.046
466.00,0.046
467.00,0.046
468.00,0.046
469.00,0.046
470.00,0.045
471.00,0.045
472.00,0.045
473.00,0.045
474.00,0.045
475.00,0.045
476.00,0.045
477.00,0.045
478.00,0.045
479.00,0.045
480.00,0.045
481.00,0.045
482.00,0.044
483.00,0.044
484.00,0.044
485.00,0.044
486.00,0.044
487.00,0.044
488.00,0.044
489.00,0.044
490.00,0.044
491.00,0.044
492.00,0.044
493.00,0.044
494.00,0.043
495.00,0.043
496.00,0.043
497.00,0.043
498.00,0.043
499.00,0.043
500.00,0.043
501.00,0.043
502.00,0.043
503.00,0.043
504.00,0.043
505.00,0.043
506.00,0.043
507.00,0.043
508.00,0.043
509.00,0.043
510.00,0.042
511.00,0.042
512.00,0.042
513.00,0.042
514.00,0.042
515.00,0.042
516.00,0.042
517.00,0.042
518.00,0.042
519.00,0.042
520.00,0.042
521.00,0.042
522.00,0.042
523.00,0.042
524.00,0.042
525.00,0.042
526.00,0.042
527.00,0.041
528.00,0.041
529.00,0.041
530.00,0.041
531.00,0.041
532.00,0.041
533.00,0.041
534.00,0.041
535.00,0.041
536.00,0.041
537.00,0.041
538.00,0.041
539.00,0.041
540.00,0.041
541.00,0.041
542.00,0.041
543.00,0.041
544.00,0.041
545.00,0.041
546.00,0.041
547.00,0.041
548.00,0.041
549.00,0.041
550.00,0.041
551.00,0.041
552.00,0.040
553.00,0.040
554.00,0.040
555.00,0.040
556.00,0.040
557.00,0.040
558.00,0.040
559.00,0.040
560.00,0.040
561.00,0.040
562.00,0.040
563.00,0.040
564.00,0.040
565.00,0.040
566.00,0.040
567.00,0.040
568.00,0.040
569.00,0.040
570.00,0.040
571.00,0.040
572.00,0.040
573.00,0.040
574.00,0.040
575.00,0.040
576.00,0.040
577.00,0.040
578.00,0.040
579.00,0.040
580.00,0.040
581.00,0.040
582.00,0.040
583.00,0.040
584.00,0.040
585.00,0.040
586.00,0.040
587.00,0.040
588.00,0.039
589.00,0.040
590.00,0.039
591.00,0.040
592.00,0.040
593.00,0.040
594.00,0.040
595.00,0.040
596.00,0.040
597.00,0.040
598.00,0.040
599.00,0.040
600.00,0.040
601.00,0.040
602.00,0.040
603.00,0.040
604.00,0.040
605.00,0.040
606.00,0.040
607.00,0.040
608.00,0.040
609.00,0.040
610.00,0.040
611.00,0.040
612.00,0.040
613.00,0.040
614.00,0.040
615.00,0.040
616.00,0.039
617.00,0.039
618.00,0.039
619.00,0.039
620.00,0.039
621.00,0.039
622.00,0.039
623.00,0.039
624.00,0.039
625.00,0.039
626.00,0.039
627.00,0.039
628.00,0.039
629.00,0.039
630.00,0.039
631.00,0.039
632.00,0.039
633.00,0.039
634.00,0.039
635.00,0.039
636.00,0.039
637.00,0.039
638.00,0.039
639.00,0.039
640.00,0.039
641.00,0.039
642.00,0.039
643.00,0.039
644.00,0.039
645.00,0.039
646.00,0.039
647.00,0.039
648.00,0.039
649.00,0.039
650.00,0.039
651.00,0.039
652.00,0.039
653.00,0.039
654.00,0.039
655.00,0.039
656.00,0.039
657.00,0.039
658.00,0.039
659.00,0.039
660.00,0.039
661.00,0.039
662.00,0.039
663.00,0.039
664.00,0.039
665.00,0.039
666.00,0.039
667.00,0.039
668.00,0.039
669.00,0.039
670.00,0.039
671.00,0.039
672.00,0.039
673.00,0.039
674.00,0.039
675.00,0.039
676.00,0.039
677.00,0.039
678.00,0.039
679.00,0.039
680.00,0.039
681.00,0.039
682.00,0.039
683.00,0.039
684.00,0.039
685.00,0.039
686.00,0.039
687.00,0.039
688.00,0.039
689.00,0.039
690.00,0.039
691.00,0.039
692.00,0.039
693.00,0.039
694.00,0.039
695.00,0.039
696.00,0.039
697.00,0.039
698.00,0.039
699.00,0.039
700.00,0.039
701.00,0.039
702.00,0.039
703.00,0.039
704.00,0.039
705.00,0.040
706.00,0.040
707.00,0.040
708.00,0.040
709.00,0.040
710.00,0.040
711.00,0.040
712.00,0.040
713.00,0.040
714.00,0.040
715.00,0.041
716.00,0.041
717.00,0.041
718.00,0.041
719.00,0.041
720.00,0.042
721.00,0.042
722.00,0.042
723.00,0.042
724.00,0.042
725.00,0.043
726.00,0.043
727.00,0.043
728.00,0.044
729.00,0.044
730.00,0.044
731.00,0.045
732.00,0.046
733.00,0.046
734.00,0.046
735.00,0.047
736.00,0.047
737.00,0.047
738.00,0.047
739.00,0.048
740.00,0.048
741.00,0.048
742.00,0.048
743.00,0.048
744.00,0.048
745.00,0.048
746.00,0.048
747.00,0.048
748.00,0.048
749.00,0.048
750.00,0.048
751.00,0.048
752.00,0.048
753.00,0.048
754.00,0.048
755.00,0.048
756.00,0.048
757.00,0.048
758.00,0.048
759.00,0.048
760.00,0.048
761.00,0.048
762.00,0.048
763.00,0.048
764.00,0.048
765.00,0.048
766.00,0.048
767.00,0.048
768.00,0.048
769.00,0.048
770.00,0.047
771.00,0.047
772.00,0.047
773.00,0.047
774.00,0.047
775.00,0.047
776.00,0.047
777.00,0.047
778.00,0.047
779.00,0.047
780.00,0.047
781.00,0.047
782.00,0.046
783.00,0.046
784.00,0.046
785.00,0.046
786.00,0.046
787.00,0.046
788.00,0.046
789.00,0.046
790.00,0.046
791.00,0.046
792.00,0.046
793.00,0.046
794.00,0.045
795.00,0.045
796.00,0.045
797.00,0.045
798.00,0.045
799.00,0.045
800.00,0.045
801.00,0.045
802.00,0.045
803.00,0.044
804.00,0.044
805.00,0.044
806.00,0.044
807.00,0.044
808.00,0.044
809.00,0.044
810.00,0.044
811.00,0.044
812.00,0.044
813.00,0.044
814.00,0.044
815.00,0.044
816.00,0.045
817.00,0.045
818.00,0.045
819.00,0.045
820.00,0.045
821.00,0.045
822.00,0.045
823.00,0.046
824.00,0.046
825.00,0.046
826.00,0.047
827.00,0.047
828.00,0.048
829.00,0.048
830.00,0.049
831.00,0.049
832.00,0.050
833.00,0.050
834.00,0.050
835.00,0.051
836.00,0.051
837.00,0.051
838.00,0.051
839.00,0.051
840.00,0.052
841.00,0.052
842.00,0.052
843.00,0.052
844.00,0.052
845.00,0.052
846.00,0.052
847.00,0.052
848.00,0.053
849.00,0.053
850.00,0.053
851.00,0.053
852.00,0.053
853.00,0.053
854.00,0.053
855.00,0.053
856.00,0.053
857.00,0.054
858.00,0.054
859.00,0.054
860.00,0.054
861.00,0.054
862.00,0.054
863.00,0.054
864.00,0.054
865.00,0.055
866.00,0.055
867.00,0.055
868.00,0.055
869.00,0.055
870.00,0.055
871.00,0.055
872.00,0.056
873.00,0.056
874.00,0.056
875.00,0.056
876.00,0.056
877.00,0.056
878.00,0.057
879.00,0.057
880.00,0.057
881.00,0.057
882.00,0.058
883.00,0.058
884.00,0.058
885.00,0.058
886.00,0.059
887.00,0.059
888.00,0.059
889.00,0.059
890.00,0.060
891.00,0.060
892.00,0.060
893.00,0.060
894.00,0.061
895.00,0.061
896.00,0.061
897.00,0.061
898.00,0.061
899.00,0.062
900.00,0.062
