"LDFBlonde_25x - RawData"
"Wavelength nm.","Abs."
190.00,3.512
191.00,3.342
192.00,3.157
193.00,3.267
194.00,3.309
195.00,3.633
196.00,3.780
197.00,3.752
198.00,3.464
199.00,3.442
200.00,3.707
201.00,3.748
202.00,3.813
203.00,3.663
204.00,3.758
205.00,3.681
206.00,3.704
207.00,3.821
208.00,3.775
209.00,3.848
210.00,3.737
211.00,3.751
212.00,3.675
213.00,3.812
214.00,3.762
215.00,3.773
216.00,3.520
217.00,3.528
218.00,3.484
219.00,3.316
220.00,3.221
221.00,3.033
222.00,2.927
223.00,2.795
224.00,2.660
225.00,2.543
226.00,2.406
227.00,2.272
228.00,2.141
229.00,2.022
230.00,1.913
231.00,1.813
232.00,1.724
233.00,1.646
234.00,1.578
235.00,1.520
236.00,1.470
237.00,1.429
238.00,1.397
239.00,1.370
240.00,1.350
241.00,1.335
242.00,1.326
243.00,1.320
244.00,1.318
245.00,1.318
246.00,1.320
247.00,1.324
248.00,1.329
249.00,1.335
250.00,1.342
251.00,1.351
252.00,1.360
253.00,1.369
254.00,1.377
255.00,1.386
256.00,1.393
257.00,1.399
258.00,1.401
259.00,1.402
260.00,1.403
261.00,1.404
262.00,1.404
263.00,1.406
264.00,1.406
265.00,1.406
266.00,1.405
267.00,1.402
268.00,1.397
269.00,1.392
270.00,1.383
271.00,1.371
272.00,1.358
273.00,1.340
274.00,1.322
275.00,1.301
276.00,1.278
277.00,1.252
278.00,1.224
279.00,1.193
280.00,1.163
281.00,1.130
282.00,1.097
283.00,1.059
284.00,1.020
285.00,0.980
286.00,0.941
287.00,0.903
288.00,0.862
289.00,0.823
290.00,0.781
291.00,0.741
292.00,0.706
293.00,0.675
294.00,0.650
295.00,0.627
296.00,0.607
297.00,0.590
298.00,0.573
299.00,0.559
300.00,0.547
301.00,0.535
302.00,0.525
303.00,0.516
304.00,0.509
305.00,0.503
306.00,0.497
307.00,0.491
308.00,0.486
309.00,0.481
310.00,0.477
311.00,0.472
312.00,0.468
313.00,0.465
314.00,0.461
315.00,0.457
316.00,0.454
317.00,0.449
318.00,0.445
319.00,0.441
320.00,0.437
321.00,0.431
322.00,0.426
323.00,0.421
324.00,0.415
325.00,0.409
326.00,0.402
327.00,0.395
328.00,0.388
329.00,0.381
330.00,0.373
331.00,0.366
332.00,0.357
333.00,0.349
334.00,0.341
335.00,0.333
336.00,0.325
337.00,0.317
338.00,0.308
339.00,0.300
340.00,0.292
341.00,0.282
342.00,0.273
343.00,0.265
344.00,0.258
345.00,0.250
346.00,0.243
347.00,0.236
348.00,0.229
349.00,0.221
350.00,0.215
351.00,0.208
352.00,0.202
353.00,0.196
354.00,0.190
355.00,0.185
356.00,0.179
357.00,0.174
358.00,0.169
359.00,0.164
360.00,0.160
361.00,0.156
362.00,0.151
363.00,0.147
364.00,0.144
365.00,0.140
366.00,0.137
367.00,0.134
368.00,0.131
369.00,0.128
370.00,0.125
371.00,0.122
372.00,0.119
373.00,0.117
374.00,0.114
375.00,0.112
376.00,0.109
377.00,0.107
378.00,0.105
379.00,0.103
380.00,0.101
381.00,0.099
382.00,0.097
383.00,0.096
384.00,0.094
385.00,0.092
386.00,0.091
387.00,0.090
388.00,0.088
389.00,0.087
390.00,0.085
391.00,0.084
392.00,0.083
393.00,0.082
394.00,0.081
395.00,0.080
396.00,0.079
397.00,0.078
398.00,0.077
399.00,0.076
400.00,0.075
401.00,0.075
402.00,0.074
403.00,0.073
404.00,0.072
405.00,0.072
406.00,0.071
407.00,0.070
408.00,0.070
409.00,0.069
410.00,0.068
411.00,0.068
412.00,0.067
413.00,0.067
414.00,0.066
415.00,0.066
416.00,0.065
417.00,0.065
418.00,0.065
419.00,0.064
420.00,0.064
421.00,0.063
422.00,0.063
423.00,0.063
424.00,0.063
425.00,0.062
426.00,0.062
427.00,0.061
428.00,0.061
429.00,0.061
430.00,0.060
431.00,0.060
432.00,0.060
433.00,0.060
434.00,0.059
435.00,0.059
436.00,0.059
437.00,0.058
438.00,0.058
439.00,0.058
440.00,0.058
441.00,0.058
442.00,0.057
443.00,0.057
444.00,0.057
445.00,0.057
446.00,0.057
447.00,0.056
448.00,0.056
449.00,0.056
450.00,0.056
451.00,0.055
452.00,0.055
453.00,0.055
454.00,0.055
455.00,0.055
456.00,0.055
457.00,0.054
458.00,0.054
459.00,0.054
460.00,0.054
461.00,0.054
462.00,0.054
463.00,0.053
464.00,0.053
465.00,0.053
466.00,0.053
467.00,0.053
468.00,0.053
469.00,0.053
470.00,0.052
471.00,0.052
472.00,0.052
473.00,0.052
474.00,0.052
475.00,0.052
476.00,0.052
477.00,0.051
478.00,0.051
479.00,0.051
480.00,0.051
481.00,0.051
482.00,0.051
483.00,0.051
484.00,0.050
485.00,0.050
486.00,0.050
487.00,0.050
488.00,0.050
489.00,0.050
490.00,0.050
491.00,0.050
492.00,0.049
493.00,0.049
494.00,0.049
495.00,0.049
496.00,0.049
497.00,0.049
498.00,0.049
499.00,0.049
500.00,0.049
501.00,0.048
502.00,0.048
503.00,0.048
504.00,0.048
505.00,0.048
506.00,0.048
507.00,0.048
508.00,0.048
509.00,0.048
510.00,0.048
511.00,0.047
512.00,0.047
513.00,0.047
514.00,0.047
515.00,0.047
516.00,0.047
517.00,0.047
518.00,0.047
519.00,0.047
520.00,0.047
521.00,0.047
522.00,0.046
523.00,0.046
524.00,0.046
525.00,0.046
526.00,0.046
527.00,0.046
528.00,0.046
529.00,0.046
530.00,0.046
531.00,0.046
532.00,0.046
533.00,0.046
534.00,0.045
535.00,0.045
536.00,0.046
537.00,0.045
538.00,0.045
539.00,0.045
540.00,0.045
541.00,0.045
542.00,0.045
543.00,0.045
544.00,0.045
545.00,0.045
546.00,0.045
547.00,0.044
548.00,0.044
549.00,0.044
550.00,0.044
551.00,0.044
552.00,0.044
553.00,0.044
554.00,0.044
555.00,0.044
556.00,0.044
557.00,0.044
558.00,0.044
559.00,0.044
560.00,0.044
561.00,0.044
562.00,0.044
563.00,0.044
564.00,0.044
565.00,0.043
566.00,0.043
567.00,0.043
568.00,0.043
569.00,0.043
570.00,0.043
571.00,0.043
572.00,0.043
573.00,0.043
574.00,0.043
575.00,0.043
576.00,0.043
577.00,0.043
578.00,0.043
579.00,0.043
580.00,0.043
581.00,0.043
582.00,0.043
583.00,0.043
584.00,0.043
585.00,0.043
586.00,0.043
587.00,0.042
588.00,0.043
589.00,0.042
590.00,0.042
591.00,0.042
592.00,0.042
593.00,0.042
594.00,0.042
595.00,0.042
596.00,0.042
597.00,0.042
598.00,0.042
599.00,0.042
600.00,0.042
601.00,0.042
602.00,0.042
603.00,0.042
604.00,0.042
605.00,0.042
606.00,0.042
607.00,0.042
608.00,0.042
609.00,0.042
610.00,0.042
611.00,0.042
612.00,0.042
613.00,0.042
614.00,0.042
615.00,0.042
616.00,0.042
617.00,0.042
618.00,0.042
619.00,0.042
620.00,0.042
621.00,0.042
622.00,0.042
623.00,0.042
624.00,0.041
625.00,0.041
626.00,0.041
627.00,0.041
628.00,0.041
629.00,0.041
630.00,0.041
631.00,0.041
632.00,0.041
633.00,0.041
634.00,0.041
635.00,0.041
636.00,0.041
637.00,0.041
638.00,0.041
639.00,0.041
640.00,0.041
641.00,0.041
642.00,0.041
643.00,0.041
644.00,0.041
645.00,0.041
646.00,0.041
647.00,0.041
648.00,0.041
649.00,0.041
650.00,0.041
651.00,0.041
652.00,0.041
653.00,0.041
654.00,0.041
655.00,0.041
656.00,0.041
657.00,0.041
658.00,0.041
659.00,0.041
660.00,0.041
661.00,0.041
662.00,0.041
663.00,0.041
664.00,0.041
665.00,0.041
666.00,0.041
667.00,0.041
668.00,0.040
669.00,0.040
670.00,0.040
671.00,0.040
672.00,0.040
673.00,0.040
674.00,0.040
675.00,0.040
676.00,0.040
677.00,0.040
678.00,0.040
679.00,0.040
680.00,0.040
681.00,0.040
682.00,0.040
683.00,0.040
684.00,0.040
685.00,0.040
686.00,0.040
687.00,0.040
688.00,0.040
689.00,0.040
690.00,0.040
691.00,0.040
692.00,0.040
693.00,0.040
694.00,0.040
695.00,0.040
696.00,0.040
697.00,0.040
698.00,0.040
699.00,0.040
700.00,0.040
701.00,0.041
702.00,0.041
703.00,0.041
704.00,0.041
705.00,0.041
706.00,0.041
707.00,0.041
708.00,0.041
709.00,0.041
710.00,0.041
711.00,0.041
712.00,0.041
713.00,0.041
714.00,0.042
715.00,0.042
716.00,0.042
717.00,0.042
718.00,0.042
719.00,0.043
720.00,0.043
721.00,0.043
722.00,0.043
723.00,0.043
724.00,0.044
725.00,0.044
726.00,0.044
727.00,0.044
728.00,0.045
729.00,0.045
730.00,0.046
731.00,0.046
732.00,0.047
733.00,0.047
734.00,0.048
735.00,0.048
736.00,0.048
737.00,0.048
738.00,0.048
739.00,0.049
740.00,0.049
741.00,0.049
742.00,0.049
743.00,0.049
744.00,0.049
745.00,0.049
746.00,0.049
747.00,0.049
748.00,0.049
749.00,0.049
750.00,0.049
751.00,0.049
752.00,0.049
753.00,0.049
754.00,0.049
755.00,0.049
756.00,0.049
757.00,0.049
758.00,0.049
759.00,0.049
760.00,0.049
761.00,0.049
762.00,0.049
763.00,0.049
764.00,0.049
765.00,0.049
766.00,0.048
767.00,0.048
768.00,0.048
769.00,0.048
770.00,0.048
771.00,0.048
772.00,0.048
773.00,0.048
774.00,0.048
775.00,0.048
776.00,0.048
777.00,0.048
778.00,0.048
779.00,0.048
780.00,0.048
781.00,0.047
782.00,0.047
783.00,0.047
784.00,0.047
785.00,0.047
786.00,0.047
787.00,0.047
788.00,0.047
789.00,0.047
790.00,0.047
791.00,0.046
792.00,0.046
793.00,0.046
794.00,0.046
795.00,0.046
796.00,0.046
797.00,0.046
798.00,0.046
799.00,0.046
800.00,0.046
801.00,0.046
802.00,0.045
803.00,0.045
804.00,0.045
805.00,0.045
806.00,0.045
807.00,0.045
808.00,0.045
809.00,0.045
810.00,0.045
811.00,0.045
812.00,0.045
813.00,0.045
814.00,0.045
815.00,0.045
816.00,0.045
817.00,0.045
818.00,0.046
819.00,0.046
820.00,0.046
821.00,0.046
822.00,0.046
823.00,0.046
824.00,0.047
825.00,0.047
826.00,0.048
827.00,0.048
828.00,0.048
829.00,0.049
830.00,0.050
831.00,0.050
832.00,0.051
833.00,0.051
834.00,0.051
835.00,0.051
836.00,0.052
837.00,0.052
838.00,0.052
839.00,0.052
840.00,0.052
841.00,0.052
842.00,0.052
843.00,0.053
844.00,0.053
845.00,0.053
846.00,0.053
847.00,0.053
848.00,0.053
849.00,0.053
850.00,0.053
851.00,0.054
852.00,0.054
853.00,0.054
854.00,0.054
855.00,0.054
856.00,0.054
857.00,0.054
858.00,0.054
859.00,0.054
860.00,0.055
861.00,0.055
862.00,0.055
863.00,0.055
864.00,0.055
865.00,0.055
866.00,0.055
867.00,0.055
868.00,0.055
869.00,0.056
870.00,0.056
871.00,0.056
872.00,0.056
873.00,0.056
874.00,0.056
875.00,0.057
876.00,0.057
877.00,0.057
878.00,0.057
879.00,0.058
880.00,0.058
881.00,0.058
882.00,0.058
883.00,0.058
884.00,0.059
885.00,0.059
886.00,0.059
887.00,0.060
888.00,0.060
889.00,0.060
890.00,0.060
891.00,0.060
892.00,0.061
893.00,0.061
894.00,0.061
895.00,0.061
896.00,0.062
897.00,0.062
898.00,0.062
899.00,0.062
900.00,0.063
