"LDFImperialIPA_50x - RawData"
"Wavelength nm.","Abs."
190.00,3.282
191.00,3.136
192.00,3.270
193.00,3.300
194.00,3.576
195.00,3.272
196.00,3.257
197.00,3.575
198.00,3.454
199.00,3.393
200.00,3.766
201.00,3.531
202.00,3.728
203.00,3.677
204.00,3.808
205.00,3.688
206.00,3.561
207.00,3.584
208.00,3.684
209.00,3.631
210.00,3.797
211.00,3.536
212.00,3.610
213.00,3.447
214.00,3.466
215.00,3.394
216.00,3.344
217.00,3.216
218.00,3.051
219.00,2.946
220.00,2.826
221.00,2.697
222.00,2.582
223.00,2.470
224.00,2.357
225.00,2.259
226.00,2.147
227.00,2.047
228.00,1.946
229.00,1.853
230.00,1.768
231.00,1.689
232.00,1.618
233.00,1.553
234.00,1.498
235.00,1.448
236.00,1.404
237.00,1.366
238.00,1.334
239.00,1.306
240.00,1.284
241.00,1.266
242.00,1.253
243.00,1.243
244.00,1.236
245.00,1.232
246.00,1.229
247.00,1.229
248.00,1.229
249.00,1.231
250.00,1.234
251.00,1.237
252.00,1.241
253.00,1.247
254.00,1.251
255.00,1.256
256.00,1.261
257.00,1.264
258.00,1.266
259.00,1.267
260.00,1.267
261.00,1.269
262.00,1.270
263.00,1.273
264.00,1.275
265.00,1.277
266.00,1.279
267.00,1.280
268.00,1.279
269.00,1.278
270.00,1.275
271.00,1.271
272.00,1.266
273.00,1.259
274.00,1.250
275.00,1.238
276.00,1.225
277.00,1.209
278.00,1.191
279.00,1.171
280.00,1.150
281.00,1.128
282.00,1.104
283.00,1.079
284.00,1.053
285.00,1.024
286.00,0.995
287.00,0.966
288.00,0.936
289.00,0.907
290.00,0.876
291.00,0.846
292.00,0.820
293.00,0.796
294.00,0.776
295.00,0.756
296.00,0.740
297.00,0.725
298.00,0.709
299.00,0.695
300.00,0.683
301.00,0.671
302.00,0.660
303.00,0.649
304.00,0.640
305.00,0.631
306.00,0.621
307.00,0.613
308.00,0.605
309.00,0.596
310.00,0.588
311.00,0.581
312.00,0.573
313.00,0.566
314.00,0.559
315.00,0.552
316.00,0.545
317.00,0.538
318.00,0.531
319.00,0.524
320.00,0.517
321.00,0.509
322.00,0.502
323.00,0.494
324.00,0.487
325.00,0.479
326.00,0.472
327.00,0.463
328.00,0.455
329.00,0.447
330.00,0.438
331.00,0.430
332.00,0.422
333.00,0.414
334.00,0.405
335.00,0.397
336.00,0.389
337.00,0.381
338.00,0.373
339.00,0.365
340.00,0.358
341.00,0.348
342.00,0.340
343.00,0.333
344.00,0.326
345.00,0.319
346.00,0.312
347.00,0.305
348.00,0.298
349.00,0.291
350.00,0.285
351.00,0.279
352.00,0.273
353.00,0.267
354.00,0.261
355.00,0.256
356.00,0.251
357.00,0.245
358.00,0.240
359.00,0.235
360.00,0.231
361.00,0.226
362.00,0.221
363.00,0.217
364.00,0.213
365.00,0.209
366.00,0.206
367.00,0.202
368.00,0.199
369.00,0.195
370.00,0.192
371.00,0.188
372.00,0.185
373.00,0.182
374.00,0.179
375.00,0.176
376.00,0.173
377.00,0.170
378.00,0.168
379.00,0.165
380.00,0.162
381.00,0.160
382.00,0.157
383.00,0.155
384.00,0.152
385.00,0.150
386.00,0.148
387.00,0.146
388.00,0.144
389.00,0.142
390.00,0.140
391.00,0.138
392.00,0.136
393.00,0.135
394.00,0.133
395.00,0.131
396.00,0.130
397.00,0.128
398.00,0.127
399.00,0.125
400.00,0.124
401.00,0.122
402.00,0.121
403.00,0.120
404.00,0.119
405.00,0.117
406.00,0.116
407.00,0.115
408.00,0.114
409.00,0.113
410.00,0.112
411.00,0.111
412.00,0.109
413.00,0.109
414.00,0.108
415.00,0.107
416.00,0.106
417.00,0.105
418.00,0.104
419.00,0.103
420.00,0.103
421.00,0.102
422.00,0.101
423.00,0.100
424.00,0.100
425.00,0.099
426.00,0.098
427.00,0.097
428.00,0.097
429.00,0.096
430.00,0.095
431.00,0.094
432.00,0.094
433.00,0.093
434.00,0.093
435.00,0.092
436.00,0.091
437.00,0.091
438.00,0.090
439.00,0.090
440.00,0.089
441.00,0.089
442.00,0.088
443.00,0.087
444.00,0.087
445.00,0.086
446.00,0.086
447.00,0.085
448.00,0.085
449.00,0.084
450.00,0.084
451.00,0.083
452.00,0.083
453.00,0.083
454.00,0.082
455.00,0.082
456.00,0.081
457.00,0.081
458.00,0.080
459.00,0.080
460.00,0.079
461.00,0.079
462.00,0.078
463.00,0.078
464.00,0.078
465.00,0.077
466.00,0.077
467.00,0.077
468.00,0.076
469.00,0.076
470.00,0.075
471.00,0.075
472.00,0.075
473.00,0.074
474.00,0.074
475.00,0.074
476.00,0.073
477.00,0.073
478.00,0.072
479.00,0.072
480.00,0.072
481.00,0.071
482.00,0.071
483.00,0.071
484.00,0.070
485.00,0.070
486.00,0.070
487.00,0.069
488.00,0.069
489.00,0.069
490.00,0.068
491.00,0.068
492.00,0.068
493.00,0.067
494.00,0.067
495.00,0.067
496.00,0.067
497.00,0.066
498.00,0.066
499.00,0.066
500.00,0.065
501.00,0.065
502.00,0.065
503.00,0.065
504.00,0.064
505.00,0.064
506.00,0.064
507.00,0.064
508.00,0.063
509.00,0.063
510.00,0.063
511.00,0.063
512.00,0.062
513.00,0.062
514.00,0.062
515.00,0.062
516.00,0.061
517.00,0.061
518.00,0.061
519.00,0.061
520.00,0.061
521.00,0.060
522.00,0.060
523.00,0.060
524.00,0.060
525.00,0.060
526.00,0.059
527.00,0.059
528.00,0.059
529.00,0.059
530.00,0.059
531.00,0.058
532.00,0.058
533.00,0.058
534.00,0.058
535.00,0.058
536.00,0.058
537.00,0.057
538.00,0.057
539.00,0.057
540.00,0.057
541.00,0.057
542.00,0.056
543.00,0.056
544.00,0.056
545.00,0.056
546.00,0.056
547.00,0.056
548.00,0.056
549.00,0.055
550.00,0.055
551.00,0.055
552.00,0.055
553.00,0.055
554.00,0.055
555.00,0.055
556.00,0.054
557.00,0.054
558.00,0.054
559.00,0.054
560.00,0.054
561.00,0.054
562.00,0.054
563.00,0.053
564.00,0.053
565.00,0.053
566.00,0.053
567.00,0.053
568.00,0.053
569.00,0.053
570.00,0.053
571.00,0.052
572.00,0.052
573.00,0.052
574.00,0.052
575.00,0.052
576.00,0.052
577.00,0.052
578.00,0.052
579.00,0.052
580.00,0.052
581.00,0.051
582.00,0.051
583.00,0.051
584.00,0.051
585.00,0.051
586.00,0.051
587.00,0.051
588.00,0.051
589.00,0.051
590.00,0.051
591.00,0.051
592.00,0.050
593.00,0.050
594.00,0.050
595.00,0.050
596.00,0.050
597.00,0.050
598.00,0.050
599.00,0.050
600.00,0.050
601.00,0.050
602.00,0.050
603.00,0.050
604.00,0.050
605.00,0.050
606.00,0.050
607.00,0.050
608.00,0.050
609.00,0.049
610.00,0.049
611.00,0.049
612.00,0.049
613.00,0.049
614.00,0.049
615.00,0.049
616.00,0.049
617.00,0.049
618.00,0.049
619.00,0.049
620.00,0.049
621.00,0.049
622.00,0.048
623.00,0.048
624.00,0.048
625.00,0.048
626.00,0.048
627.00,0.048
628.00,0.048
629.00,0.048
630.00,0.048
631.00,0.048
632.00,0.048
633.00,0.048
634.00,0.048
635.00,0.048
636.00,0.048
637.00,0.047
638.00,0.047
639.00,0.047
640.00,0.047
641.00,0.047
642.00,0.047
643.00,0.047
644.00,0.047
645.00,0.047
646.00,0.047
647.00,0.047
648.00,0.047
649.00,0.047
650.00,0.047
651.00,0.047
652.00,0.047
653.00,0.047
654.00,0.047
655.00,0.047
656.00,0.047
657.00,0.047
658.00,0.047
659.00,0.047
660.00,0.047
661.00,0.046
662.00,0.046
663.00,0.046
664.00,0.046
665.00,0.046
666.00,0.046
667.00,0.046
668.00,0.046
669.00,0.046
670.00,0.046
671.00,0.046
672.00,0.046
673.00,0.046
674.00,0.046
675.00,0.046
676.00,0.046
677.00,0.046
678.00,0.046
679.00,0.046
680.00,0.046
681.00,0.046
682.00,0.046
683.00,0.046
684.00,0.046
685.00,0.045
686.00,0.045
687.00,0.046
688.00,0.046
689.00,0.046
690.00,0.046
691.00,0.046
692.00,0.046
693.00,0.045
694.00,0.045
695.00,0.045
696.00,0.046
697.00,0.046
698.00,0.046
699.00,0.046
700.00,0.046
701.00,0.046
702.00,0.046
703.00,0.046
704.00,0.046
705.00,0.046
706.00,0.046
707.00,0.046
708.00,0.046
709.00,0.046
710.00,0.046
711.00,0.046
712.00,0.046
713.00,0.046
714.00,0.046
715.00,0.047
716.00,0.047
717.00,0.047
718.00,0.047
719.00,0.047
720.00,0.047
721.00,0.047
722.00,0.048
723.00,0.048
724.00,0.048
725.00,0.048
726.00,0.049
727.00,0.049
728.00,0.049
729.00,0.050
730.00,0.050
731.00,0.051
732.00,0.051
733.00,0.052
734.00,0.052
735.00,0.052
736.00,0.053
737.00,0.053
738.00,0.053
739.00,0.053
740.00,0.053
741.00,0.053
742.00,0.053
743.00,0.053
744.00,0.053
745.00,0.053
746.00,0.053
747.00,0.053
748.00,0.053
749.00,0.053
750.00,0.053
751.00,0.053
752.00,0.053
753.00,0.053
754.00,0.053
755.00,0.053
756.00,0.053
757.00,0.053
758.00,0.053
759.00,0.053
760.00,0.053
761.00,0.053
762.00,0.053
763.00,0.053
764.00,0.053
765.00,0.053
766.00,0.053
767.00,0.053
768.00,0.053
769.00,0.053
770.00,0.052
771.00,0.052
772.00,0.052
773.00,0.052
774.00,0.052
775.00,0.052
776.00,0.052
777.00,0.052
778.00,0.052
779.00,0.052
780.00,0.052
781.00,0.051
782.00,0.051
783.00,0.051
784.00,0.051
785.00,0.051
786.00,0.051
787.00,0.051
788.00,0.051
789.00,0.051
790.00,0.050
791.00,0.050
792.00,0.050
793.00,0.050
794.00,0.050
795.00,0.050
796.00,0.050
797.00,0.050
798.00,0.050
799.00,0.050
800.00,0.049
801.00,0.049
802.00,0.049
803.00,0.049
804.00,0.049
805.00,0.049
806.00,0.049
807.00,0.049
808.00,0.049
809.00,0.049
810.00,0.049
811.00,0.049
812.00,0.049
813.00,0.049
814.00,0.049
815.00,0.049
816.00,0.049
817.00,0.049
818.00,0.049
819.00,0.049
820.00,0.049
821.00,0.050
822.00,0.050
823.00,0.050
824.00,0.050
825.00,0.051
826.00,0.051
827.00,0.051
828.00,0.052
829.00,0.053
830.00,0.053
831.00,0.054
832.00,0.054
833.00,0.054
834.00,0.055
835.00,0.055
836.00,0.055
837.00,0.055
838.00,0.055
839.00,0.056
840.00,0.056
841.00,0.056
842.00,0.056
843.00,0.056
844.00,0.056
845.00,0.056
846.00,0.056
847.00,0.056
848.00,0.057
849.00,0.057
850.00,0.057
851.00,0.057
852.00,0.057
853.00,0.057
854.00,0.057
855.00,0.057
856.00,0.057
857.00,0.058
858.00,0.058
859.00,0.058
860.00,0.058
861.00,0.058
862.00,0.058
863.00,0.058
864.00,0.059
865.00,0.059
866.00,0.059
867.00,0.059
868.00,0.059
869.00,0.059
870.00,0.059
871.00,0.059
872.00,0.060
873.00,0.060
874.00,0.060
875.00,0.060
876.00,0.060
877.00,0.061
878.00,0.061
879.00,0.061
880.00,0.061
881.00,0.061
882.00,0.062
883.00,0.062
884.00,0.062
885.00,0.062
886.00,0.063
887.00,0.063
888.00,0.063
889.00,0.063
890.00,0.064
891.00,0.064
892.00,0.064
893.00,0.064
894.00,0.065
895.00,0.065
896.00,0.065
897.00,0.066
898.00,0.066
899.00,0.066
900.00,0.066
