"LeCastorSanctuaire50x - RawData"
"Wavelength nm.","Abs."
190.00,2.812
191.00,3.053
192.00,3.209
193.00,3.189
194.00,3.204
195.00,3.292
196.00,3.347
197.00,3.337
198.00,3.434
199.00,3.615
200.00,3.487
201.00,3.570
202.00,3.473
203.00,3.634
204.00,3.700
205.00,3.587
206.00,3.751
207.00,3.835
208.00,3.609
209.00,3.485
210.00,3.474
211.00,3.512
212.00,3.363
213.00,3.367
214.00,3.192
215.00,3.058
216.00,2.945
217.00,2.827
218.00,2.704
219.00,2.580
220.00,2.468
221.00,2.356
222.00,2.244
223.00,2.139
224.00,2.027
225.00,1.919
226.00,1.815
227.00,1.708
228.00,1.605
229.00,1.511
230.00,1.424
231.00,1.342
232.00,1.270
233.00,1.206
234.00,1.152
235.00,1.106
236.00,1.067
237.00,1.035
238.00,1.009
239.00,0.988
240.00,0.972
241.00,0.960
242.00,0.951
243.00,0.946
244.00,0.942
245.00,0.941
246.00,0.941
247.00,0.942
248.00,0.945
249.00,0.948
250.00,0.952
251.00,0.956
252.00,0.961
253.00,0.966
254.00,0.972
255.00,0.976
256.00,0.981
257.00,0.986
258.00,0.990
259.00,0.994
260.00,0.997
261.00,1.001
262.00,1.004
263.00,1.007
264.00,1.010
265.00,1.011
266.00,1.011
267.00,1.011
268.00,1.009
269.00,1.006
270.00,1.000
271.00,0.993
272.00,0.984
273.00,0.974
274.00,0.962
275.00,0.949
276.00,0.933
277.00,0.917
278.00,0.898
279.00,0.880
280.00,0.860
281.00,0.840
282.00,0.819
283.00,0.795
284.00,0.771
285.00,0.746
286.00,0.723
287.00,0.701
288.00,0.678
289.00,0.656
290.00,0.632
291.00,0.609
292.00,0.588
293.00,0.570
294.00,0.554
295.00,0.540
296.00,0.527
297.00,0.516
298.00,0.504
299.00,0.494
300.00,0.485
301.00,0.476
302.00,0.469
303.00,0.461
304.00,0.455
305.00,0.449
306.00,0.443
307.00,0.437
308.00,0.432
309.00,0.427
310.00,0.422
311.00,0.417
312.00,0.413
313.00,0.409
314.00,0.404
315.00,0.400
316.00,0.396
317.00,0.392
318.00,0.388
319.00,0.383
320.00,0.379
321.00,0.375
322.00,0.369
323.00,0.364
324.00,0.360
325.00,0.355
326.00,0.349
327.00,0.344
328.00,0.338
329.00,0.333
330.00,0.327
331.00,0.321
332.00,0.316
333.00,0.310
334.00,0.304
335.00,0.298
336.00,0.293
337.00,0.287
338.00,0.281
339.00,0.275
340.00,0.270
341.00,0.264
342.00,0.258
343.00,0.252
344.00,0.247
345.00,0.242
346.00,0.237
347.00,0.232
348.00,0.228
349.00,0.223
350.00,0.218
351.00,0.214
352.00,0.209
353.00,0.205
354.00,0.201
355.00,0.197
356.00,0.194
357.00,0.190
358.00,0.186
359.00,0.183
360.00,0.180
361.00,0.177
362.00,0.174
363.00,0.171
364.00,0.169
365.00,0.166
366.00,0.163
367.00,0.161
368.00,0.159
369.00,0.156
370.00,0.154
371.00,0.152
372.00,0.150
373.00,0.148
374.00,0.146
375.00,0.145
376.00,0.143
377.00,0.141
378.00,0.140
379.00,0.138
380.00,0.136
381.00,0.135
382.00,0.134
383.00,0.132
384.00,0.131
385.00,0.130
386.00,0.129
387.00,0.127
388.00,0.126
389.00,0.125
390.00,0.124
391.00,0.123
392.00,0.122
393.00,0.121
394.00,0.120
395.00,0.119
396.00,0.118
397.00,0.117
398.00,0.117
399.00,0.116
400.00,0.115
401.00,0.114
402.00,0.114
403.00,0.113
404.00,0.112
405.00,0.112
406.00,0.111
407.00,0.110
408.00,0.110
409.00,0.109
410.00,0.109
411.00,0.108
412.00,0.108
413.00,0.107
414.00,0.107
415.00,0.106
416.00,0.106
417.00,0.106
418.00,0.105
419.00,0.105
420.00,0.104
421.00,0.104
422.00,0.104
423.00,0.103
424.00,0.103
425.00,0.102
426.00,0.102
427.00,0.101
428.00,0.101
429.00,0.101
430.00,0.100
431.00,0.100
432.00,0.100
433.00,0.099
434.00,0.099
435.00,0.099
436.00,0.098
437.00,0.098
438.00,0.098
439.00,0.097
440.00,0.097
441.00,0.097
442.00,0.097
443.00,0.096
444.00,0.096
445.00,0.096
446.00,0.096
447.00,0.095
448.00,0.095
449.00,0.095
450.00,0.095
451.00,0.094
452.00,0.094
453.00,0.094
454.00,0.094
455.00,0.094
456.00,0.093
457.00,0.093
458.00,0.093
459.00,0.093
460.00,0.093
461.00,0.092
462.00,0.092
463.00,0.092
464.00,0.092
465.00,0.091
466.00,0.091
467.00,0.091
468.00,0.091
469.00,0.090
470.00,0.090
471.00,0.090
472.00,0.090
473.00,0.090
474.00,0.089
475.00,0.089
476.00,0.089
477.00,0.089
478.00,0.089
479.00,0.088
480.00,0.088
481.00,0.088
482.00,0.088
483.00,0.088
484.00,0.087
485.00,0.087
486.00,0.087
487.00,0.087
488.00,0.087
489.00,0.087
490.00,0.087
491.00,0.086
492.00,0.086
493.00,0.086
494.00,0.086
495.00,0.086
496.00,0.086
497.00,0.085
498.00,0.085
499.00,0.085
500.00,0.085
501.00,0.085
502.00,0.085
503.00,0.084
504.00,0.084
505.00,0.084
506.00,0.084
507.00,0.084
508.00,0.084
509.00,0.083
510.00,0.083
511.00,0.083
512.00,0.083
513.00,0.083
514.00,0.083
515.00,0.083
516.00,0.082
517.00,0.082
518.00,0.082
519.00,0.082
520.00,0.082
521.00,0.082
522.00,0.082
523.00,0.082
524.00,0.081
525.00,0.081
526.00,0.081
527.00,0.081
528.00,0.081
529.00,0.081
530.00,0.081
531.00,0.081
532.00,0.081
533.00,0.080
534.00,0.080
535.00,0.080
536.00,0.080
537.00,0.080
538.00,0.080
539.00,0.080
540.00,0.080
541.00,0.080
542.00,0.079
543.00,0.079
544.00,0.079
545.00,0.079
546.00,0.079
547.00,0.079
548.00,0.079
549.00,0.079
550.00,0.079
551.00,0.079
552.00,0.078
553.00,0.078
554.00,0.078
555.00,0.078
556.00,0.078
557.00,0.078
558.00,0.078
559.00,0.078
560.00,0.078
561.00,0.078
562.00,0.078
563.00,0.078
564.00,0.078
565.00,0.077
566.00,0.077
567.00,0.077
568.00,0.077
569.00,0.077
570.00,0.077
571.00,0.077
572.00,0.077
573.00,0.077
574.00,0.077
575.00,0.076
576.00,0.076
577.00,0.076
578.00,0.076
579.00,0.076
580.00,0.076
581.00,0.076
582.00,0.076
583.00,0.076
584.00,0.076
585.00,0.076
586.00,0.076
587.00,0.076
588.00,0.076
589.00,0.076
590.00,0.076
591.00,0.075
592.00,0.075
593.00,0.075
594.00,0.075
595.00,0.075
596.00,0.075
597.00,0.075
598.00,0.075
599.00,0.075
600.00,0.075
601.00,0.075
602.00,0.075
603.00,0.075
604.00,0.075
605.00,0.075
606.00,0.075
607.00,0.075
608.00,0.075
609.00,0.075
610.00,0.075
611.00,0.075
612.00,0.074
613.00,0.074
614.00,0.074
615.00,0.074
616.00,0.074
617.00,0.074
618.00,0.074
619.00,0.074
620.00,0.074
621.00,0.074
622.00,0.074
623.00,0.074
624.00,0.074
625.00,0.074
626.00,0.074
627.00,0.074
628.00,0.074
629.00,0.074
630.00,0.074
631.00,0.074
632.00,0.074
633.00,0.074
634.00,0.074
635.00,0.074
636.00,0.073
637.00,0.073
638.00,0.073
639.00,0.073
640.00,0.073
641.00,0.073
642.00,0.073
643.00,0.073
644.00,0.073
645.00,0.073
646.00,0.073
647.00,0.073
648.00,0.073
649.00,0.073
650.00,0.073
651.00,0.073
652.00,0.073
653.00,0.073
654.00,0.073
655.00,0.073
656.00,0.073
657.00,0.073
658.00,0.073
659.00,0.073
660.00,0.073
661.00,0.073
662.00,0.073
663.00,0.073
664.00,0.073
665.00,0.073
666.00,0.073
667.00,0.073
668.00,0.073
669.00,0.073
670.00,0.073
671.00,0.072
672.00,0.072
673.00,0.072
674.00,0.072
675.00,0.072
676.00,0.072
677.00,0.072
678.00,0.072
679.00,0.072
680.00,0.072
681.00,0.072
682.00,0.072
683.00,0.072
684.00,0.072
685.00,0.072
686.00,0.072
687.00,0.072
688.00,0.072
689.00,0.072
690.00,0.072
691.00,0.072
692.00,0.072
693.00,0.072
694.00,0.072
695.00,0.072
696.00,0.072
697.00,0.072
698.00,0.072
699.00,0.072
700.00,0.072
701.00,0.072
702.00,0.072
703.00,0.072
704.00,0.072
705.00,0.072
706.00,0.072
707.00,0.072
708.00,0.072
709.00,0.072
710.00,0.072
711.00,0.072
712.00,0.072
713.00,0.073
714.00,0.073
715.00,0.073
716.00,0.073
717.00,0.073
718.00,0.073
719.00,0.073
720.00,0.073
721.00,0.074
722.00,0.074
723.00,0.074
724.00,0.074
725.00,0.074
726.00,0.075
727.00,0.075
728.00,0.075
729.00,0.076
730.00,0.076
731.00,0.076
732.00,0.077
733.00,0.077
734.00,0.078
735.00,0.078
736.00,0.078
737.00,0.079
738.00,0.079
739.00,0.079
740.00,0.079
741.00,0.079
742.00,0.079
743.00,0.079
744.00,0.079
745.00,0.079
746.00,0.078
747.00,0.078
748.00,0.078
749.00,0.078
750.00,0.078
751.00,0.078
752.00,0.078
753.00,0.078
754.00,0.078
755.00,0.078
756.00,0.078
757.00,0.078
758.00,0.078
759.00,0.078
760.00,0.078
761.00,0.078
762.00,0.078
763.00,0.078
764.00,0.078
765.00,0.078
766.00,0.078
767.00,0.077
768.00,0.077
769.00,0.077
770.00,0.077
771.00,0.077
772.00,0.077
773.00,0.077
774.00,0.077
775.00,0.077
776.00,0.077
777.00,0.077
778.00,0.076
779.00,0.076
780.00,0.076
781.00,0.076
782.00,0.076
783.00,0.076
784.00,0.076
785.00,0.076
786.00,0.076
787.00,0.075
788.00,0.075
789.00,0.075
790.00,0.075
791.00,0.075
792.00,0.075
793.00,0.075
794.00,0.075
795.00,0.075
796.00,0.074
797.00,0.074
798.00,0.074
799.00,0.074
800.00,0.074
801.00,0.074
802.00,0.074
803.00,0.074
804.00,0.073
805.00,0.073
806.00,0.073
807.00,0.073
808.00,0.073
809.00,0.073
810.00,0.073
811.00,0.073
812.00,0.073
813.00,0.073
814.00,0.073
815.00,0.073
816.00,0.073
817.00,0.073
818.00,0.073
819.00,0.074
820.00,0.074
821.00,0.074
822.00,0.074
823.00,0.074
824.00,0.074
825.00,0.075
826.00,0.075
827.00,0.076
828.00,0.076
829.00,0.077
830.00,0.077
831.00,0.078
832.00,0.078
833.00,0.079
834.00,0.079
835.00,0.079
836.00,0.079
837.00,0.079
838.00,0.080
839.00,0.080
840.00,0.080
841.00,0.080
842.00,0.080
843.00,0.080
844.00,0.080
845.00,0.080
846.00,0.080
847.00,0.081
848.00,0.081
849.00,0.081
850.00,0.081
851.00,0.081
852.00,0.081
853.00,0.081
854.00,0.081
855.00,0.081
856.00,0.081
857.00,0.081
858.00,0.081
859.00,0.081
860.00,0.081
861.00,0.081
862.00,0.082
863.00,0.082
864.00,0.082
865.00,0.082
866.00,0.082
867.00,0.082
868.00,0.082
869.00,0.082
870.00,0.083
871.00,0.083
872.00,0.083
873.00,0.083
874.00,0.083
875.00,0.083
876.00,0.083
877.00,0.084
878.00,0.084
879.00,0.084
880.00,0.084
881.00,0.085
882.00,0.085
883.00,0.085
884.00,0.085
885.00,0.085
886.00,0.086
887.00,0.086
888.00,0.086
889.00,0.086
890.00,0.086
891.00,0.087
892.00,0.087
893.00,0.087
894.00,0.087
895.00,0.087
896.00,0.088
897.00,0.088
898.00,0.088
899.00,0.088
900.00,0.088
