"LeCastorSessionHoublon50x - RawData"
"Wavelength nm.","Abs."
190.00,2.839
191.00,2.928
192.00,3.028
193.00,3.141
194.00,3.183
195.00,3.232
196.00,3.175
197.00,3.356
198.00,3.425
199.00,3.450
200.00,3.310
201.00,3.485
202.00,3.602
203.00,3.336
204.00,3.374
205.00,3.423
206.00,3.274
207.00,3.249
208.00,3.114
209.00,3.050
210.00,2.943
211.00,2.812
212.00,2.710
213.00,2.600
214.00,2.495
215.00,2.383
216.00,2.277
217.00,2.179
218.00,2.077
219.00,1.985
220.00,1.896
221.00,1.813
222.00,1.731
223.00,1.653
224.00,1.573
225.00,1.499
226.00,1.425
227.00,1.351
228.00,1.281
229.00,1.219
230.00,1.160
231.00,1.106
232.00,1.058
233.00,1.015
234.00,0.978
235.00,0.946
236.00,0.919
237.00,0.896
238.00,0.876
239.00,0.860
240.00,0.847
241.00,0.836
242.00,0.829
243.00,0.824
244.00,0.821
245.00,0.820
246.00,0.820
247.00,0.821
248.00,0.823
249.00,0.826
250.00,0.829
251.00,0.834
252.00,0.839
253.00,0.844
254.00,0.850
255.00,0.854
256.00,0.859
257.00,0.863
258.00,0.866
259.00,0.868
260.00,0.869
261.00,0.870
262.00,0.871
263.00,0.872
264.00,0.872
265.00,0.871
266.00,0.870
267.00,0.869
268.00,0.867
269.00,0.864
270.00,0.858
271.00,0.850
272.00,0.842
273.00,0.831
274.00,0.820
275.00,0.808
276.00,0.796
277.00,0.783
278.00,0.769
279.00,0.754
280.00,0.738
281.00,0.722
282.00,0.705
283.00,0.686
284.00,0.668
285.00,0.647
286.00,0.629
287.00,0.610
288.00,0.590
289.00,0.570
290.00,0.549
291.00,0.528
292.00,0.510
293.00,0.494
294.00,0.481
295.00,0.468
296.00,0.458
297.00,0.448
298.00,0.439
299.00,0.431
300.00,0.423
301.00,0.416
302.00,0.410
303.00,0.404
304.00,0.399
305.00,0.394
306.00,0.388
307.00,0.383
308.00,0.379
309.00,0.375
310.00,0.370
311.00,0.366
312.00,0.362
313.00,0.358
314.00,0.355
315.00,0.351
316.00,0.347
317.00,0.344
318.00,0.340
319.00,0.335
320.00,0.331
321.00,0.327
322.00,0.323
323.00,0.318
324.00,0.314
325.00,0.309
326.00,0.304
327.00,0.300
328.00,0.295
329.00,0.289
330.00,0.284
331.00,0.279
332.00,0.274
333.00,0.268
334.00,0.263
335.00,0.258
336.00,0.253
337.00,0.248
338.00,0.243
339.00,0.238
340.00,0.233
341.00,0.227
342.00,0.222
343.00,0.217
344.00,0.213
345.00,0.209
346.00,0.204
347.00,0.200
348.00,0.195
349.00,0.191
350.00,0.188
351.00,0.184
352.00,0.180
353.00,0.176
354.00,0.173
355.00,0.170
356.00,0.166
357.00,0.163
358.00,0.160
359.00,0.157
360.00,0.154
361.00,0.151
362.00,0.149
363.00,0.146
364.00,0.144
365.00,0.142
366.00,0.139
367.00,0.137
368.00,0.135
369.00,0.133
370.00,0.131
371.00,0.129
372.00,0.127
373.00,0.125
374.00,0.123
375.00,0.121
376.00,0.120
377.00,0.118
378.00,0.117
379.00,0.115
380.00,0.113
381.00,0.112
382.00,0.110
383.00,0.109
384.00,0.108
385.00,0.107
386.00,0.106
387.00,0.104
388.00,0.103
389.00,0.102
390.00,0.101
391.00,0.100
392.00,0.099
393.00,0.098
394.00,0.097
395.00,0.096
396.00,0.096
397.00,0.095
398.00,0.094
399.00,0.093
400.00,0.092
401.00,0.092
402.00,0.091
403.00,0.090
404.00,0.090
405.00,0.089
406.00,0.089
407.00,0.088
408.00,0.087
409.00,0.087
410.00,0.086
411.00,0.086
412.00,0.086
413.00,0.085
414.00,0.085
415.00,0.084
416.00,0.084
417.00,0.084
418.00,0.083
419.00,0.083
420.00,0.083
421.00,0.082
422.00,0.082
423.00,0.082
424.00,0.081
425.00,0.081
426.00,0.081
427.00,0.080
428.00,0.080
429.00,0.080
430.00,0.079
431.00,0.079
432.00,0.079
433.00,0.079
434.00,0.078
435.00,0.078
436.00,0.078
437.00,0.078
438.00,0.077
439.00,0.077
440.00,0.077
441.00,0.077
442.00,0.076
443.00,0.076
444.00,0.076
445.00,0.076
446.00,0.076
447.00,0.076
448.00,0.075
449.00,0.075
450.00,0.075
451.00,0.075
452.00,0.075
453.00,0.074
454.00,0.074
455.00,0.074
456.00,0.074
457.00,0.074
458.00,0.074
459.00,0.073
460.00,0.073
461.00,0.073
462.00,0.073
463.00,0.073
464.00,0.073
465.00,0.072
466.00,0.072
467.00,0.072
468.00,0.072
469.00,0.072
470.00,0.072
471.00,0.072
472.00,0.072
473.00,0.071
474.00,0.071
475.00,0.071
476.00,0.071
477.00,0.071
478.00,0.071
479.00,0.070
480.00,0.070
481.00,0.070
482.00,0.070
483.00,0.070
484.00,0.070
485.00,0.070
486.00,0.070
487.00,0.069
488.00,0.069
489.00,0.069
490.00,0.069
491.00,0.069
492.00,0.069
493.00,0.069
494.00,0.069
495.00,0.069
496.00,0.068
497.00,0.068
498.00,0.068
499.00,0.068
500.00,0.068
501.00,0.068
502.00,0.068
503.00,0.068
504.00,0.068
505.00,0.067
506.00,0.067
507.00,0.067
508.00,0.067
509.00,0.067
510.00,0.067
511.00,0.067
512.00,0.067
513.00,0.067
514.00,0.067
515.00,0.067
516.00,0.066
517.00,0.066
518.00,0.066
519.00,0.066
520.00,0.066
521.00,0.066
522.00,0.066
523.00,0.066
524.00,0.066
525.00,0.066
526.00,0.066
527.00,0.065
528.00,0.065
529.00,0.065
530.00,0.065
531.00,0.065
532.00,0.065
533.00,0.065
534.00,0.065
535.00,0.065
536.00,0.065
537.00,0.065
538.00,0.065
539.00,0.065
540.00,0.065
541.00,0.064
542.00,0.064
543.00,0.064
544.00,0.064
545.00,0.064
546.00,0.064
547.00,0.064
548.00,0.064
549.00,0.064
550.00,0.064
551.00,0.064
552.00,0.064
553.00,0.064
554.00,0.064
555.00,0.064
556.00,0.063
557.00,0.063
558.00,0.063
559.00,0.063
560.00,0.063
561.00,0.063
562.00,0.063
563.00,0.063
564.00,0.063
565.00,0.063
566.00,0.063
567.00,0.063
568.00,0.063
569.00,0.063
570.00,0.063
571.00,0.063
572.00,0.063
573.00,0.063
574.00,0.063
575.00,0.063
576.00,0.062
577.00,0.062
578.00,0.062
579.00,0.062
580.00,0.062
581.00,0.062
582.00,0.062
583.00,0.062
584.00,0.062
585.00,0.062
586.00,0.062
587.00,0.062
588.00,0.062
589.00,0.062
590.00,0.062
591.00,0.062
592.00,0.062
593.00,0.062
594.00,0.062
595.00,0.062
596.00,0.062
597.00,0.062
598.00,0.062
599.00,0.062
600.00,0.062
601.00,0.062
602.00,0.062
603.00,0.062
604.00,0.062
605.00,0.062
606.00,0.062
607.00,0.062
608.00,0.062
609.00,0.062
610.00,0.062
611.00,0.062
612.00,0.062
613.00,0.062
614.00,0.062
615.00,0.062
616.00,0.061
617.00,0.062
618.00,0.062
619.00,0.062
620.00,0.061
621.00,0.061
622.00,0.061
623.00,0.061
624.00,0.061
625.00,0.061
626.00,0.061
627.00,0.061
628.00,0.061
629.00,0.061
630.00,0.061
631.00,0.061
632.00,0.061
633.00,0.061
634.00,0.061
635.00,0.061
636.00,0.061
637.00,0.061
638.00,0.061
639.00,0.061
640.00,0.061
641.00,0.061
642.00,0.061
643.00,0.061
644.00,0.061
645.00,0.061
646.00,0.061
647.00,0.061
648.00,0.061
649.00,0.061
650.00,0.061
651.00,0.061
652.00,0.061
653.00,0.060
654.00,0.060
655.00,0.061
656.00,0.061
657.00,0.061
658.00,0.061
659.00,0.060
660.00,0.060
661.00,0.061
662.00,0.061
663.00,0.061
664.00,0.061
665.00,0.060
666.00,0.060
667.00,0.060
668.00,0.060
669.00,0.060
670.00,0.060
671.00,0.060
672.00,0.060
673.00,0.060
674.00,0.060
675.00,0.060
676.00,0.060
677.00,0.060
678.00,0.060
679.00,0.060
680.00,0.060
681.00,0.060
682.00,0.060
683.00,0.060
684.00,0.060
685.00,0.060
686.00,0.060
687.00,0.060
688.00,0.060
689.00,0.060
690.00,0.060
691.00,0.060
692.00,0.060
693.00,0.060
694.00,0.060
695.00,0.060
696.00,0.060
697.00,0.060
698.00,0.060
699.00,0.060
700.00,0.060
701.00,0.060
702.00,0.060
703.00,0.060
704.00,0.060
705.00,0.061
706.00,0.061
707.00,0.061
708.00,0.061
709.00,0.061
710.00,0.061
711.00,0.061
712.00,0.061
713.00,0.061
714.00,0.061
715.00,0.062
716.00,0.062
717.00,0.062
718.00,0.062
719.00,0.062
720.00,0.062
721.00,0.063
722.00,0.063
723.00,0.063
724.00,0.063
725.00,0.064
726.00,0.064
727.00,0.064
728.00,0.065
729.00,0.065
730.00,0.065
731.00,0.066
732.00,0.066
733.00,0.067
734.00,0.067
735.00,0.068
736.00,0.068
737.00,0.068
738.00,0.068
739.00,0.069
740.00,0.069
741.00,0.069
742.00,0.069
743.00,0.069
744.00,0.069
745.00,0.069
746.00,0.069
747.00,0.069
748.00,0.069
749.00,0.069
750.00,0.069
751.00,0.069
752.00,0.069
753.00,0.069
754.00,0.068
755.00,0.068
756.00,0.068
757.00,0.068
758.00,0.068
759.00,0.068
760.00,0.069
761.00,0.068
762.00,0.068
763.00,0.068
764.00,0.068
765.00,0.068
766.00,0.068
767.00,0.068
768.00,0.068
769.00,0.068
770.00,0.068
771.00,0.068
772.00,0.068
773.00,0.068
774.00,0.067
775.00,0.067
776.00,0.067
777.00,0.067
778.00,0.067
779.00,0.067
780.00,0.067
781.00,0.067
782.00,0.067
783.00,0.067
784.00,0.066
785.00,0.066
786.00,0.066
787.00,0.066
788.00,0.066
789.00,0.066
790.00,0.066
791.00,0.066
792.00,0.066
793.00,0.066
794.00,0.065
795.00,0.065
796.00,0.065
797.00,0.065
798.00,0.065
799.00,0.065
800.00,0.065
801.00,0.065
802.00,0.065
803.00,0.064
804.00,0.064
805.00,0.064
806.00,0.064
807.00,0.064
808.00,0.064
809.00,0.064
810.00,0.064
811.00,0.064
812.00,0.064
813.00,0.064
814.00,0.064
815.00,0.064
816.00,0.064
817.00,0.065
818.00,0.065
819.00,0.065
820.00,0.065
821.00,0.065
822.00,0.065
823.00,0.066
824.00,0.066
825.00,0.066
826.00,0.067
827.00,0.067
828.00,0.068
829.00,0.068
830.00,0.069
831.00,0.069
832.00,0.070
833.00,0.070
834.00,0.071
835.00,0.071
836.00,0.071
837.00,0.071
838.00,0.071
839.00,0.071
840.00,0.072
841.00,0.072
842.00,0.072
843.00,0.072
844.00,0.072
845.00,0.072
846.00,0.072
847.00,0.072
848.00,0.072
849.00,0.072
850.00,0.072
851.00,0.072
852.00,0.073
853.00,0.073
854.00,0.073
855.00,0.073
856.00,0.073
857.00,0.073
858.00,0.073
859.00,0.073
860.00,0.073
861.00,0.073
862.00,0.073
863.00,0.073
864.00,0.074
865.00,0.074
866.00,0.074
867.00,0.074
868.00,0.074
869.00,0.074
870.00,0.074
871.00,0.074
872.00,0.075
873.00,0.075
874.00,0.075
875.00,0.075
876.00,0.075
877.00,0.076
878.00,0.076
879.00,0.076
880.00,0.076
881.00,0.076
882.00,0.077
883.00,0.077
884.00,0.077
885.00,0.077
886.00,0.077
887.00,0.078
888.00,0.078
889.00,0.078
890.00,0.078
891.00,0.079
892.00,0.079
893.00,0.079
894.00,0.079
895.00,0.080
896.00,0.080
897.00,0.080
898.00,0.080
899.00,0.080
900.00,0.081
