"LesFreresHoublonSaintSeverePasseeDate_50x - RawData"
"Wavelength nm.","Abs."
190.00,3.166
191.00,3.421
192.00,3.719
193.00,3.115
194.00,3.420
195.00,3.669
196.00,3.539
197.00,3.566
198.00,3.576
199.00,3.712
200.00,3.601
201.00,3.572
202.00,3.586
203.00,3.723
204.00,3.689
205.00,3.713
206.00,3.615
207.00,3.483
208.00,3.396
209.00,3.304
210.00,3.226
211.00,3.133
212.00,2.988
213.00,2.872
214.00,2.745
215.00,2.622
216.00,2.509
217.00,2.398
218.00,2.285
219.00,2.173
220.00,2.061
221.00,1.962
222.00,1.869
223.00,1.777
224.00,1.687
225.00,1.603
226.00,1.520
227.00,1.437
228.00,1.358
229.00,1.284
230.00,1.214
231.00,1.151
232.00,1.094
233.00,1.044
234.00,1.001
235.00,0.963
236.00,0.931
237.00,0.903
238.00,0.880
239.00,0.861
240.00,0.846
241.00,0.834
242.00,0.826
243.00,0.820
244.00,0.816
245.00,0.814
246.00,0.814
247.00,0.816
248.00,0.818
249.00,0.822
250.00,0.826
251.00,0.831
252.00,0.838
253.00,0.844
254.00,0.850
255.00,0.857
256.00,0.864
257.00,0.869
258.00,0.874
259.00,0.878
260.00,0.881
261.00,0.884
262.00,0.886
263.00,0.888
264.00,0.889
265.00,0.889
266.00,0.887
267.00,0.884
268.00,0.880
269.00,0.874
270.00,0.866
271.00,0.857
272.00,0.847
273.00,0.836
274.00,0.823
275.00,0.808
276.00,0.793
277.00,0.776
278.00,0.759
279.00,0.739
280.00,0.721
281.00,0.701
282.00,0.682
283.00,0.662
284.00,0.641
285.00,0.620
286.00,0.600
287.00,0.580
288.00,0.561
289.00,0.543
290.00,0.524
291.00,0.507
292.00,0.491
293.00,0.477
294.00,0.465
295.00,0.454
296.00,0.445
297.00,0.437
298.00,0.429
299.00,0.422
300.00,0.415
301.00,0.409
302.00,0.403
303.00,0.398
304.00,0.393
305.00,0.389
306.00,0.384
307.00,0.380
308.00,0.376
309.00,0.372
310.00,0.369
311.00,0.366
312.00,0.362
313.00,0.359
314.00,0.356
315.00,0.353
316.00,0.350
317.00,0.347
318.00,0.344
319.00,0.341
320.00,0.338
321.00,0.334
322.00,0.331
323.00,0.327
324.00,0.324
325.00,0.320
326.00,0.316
327.00,0.312
328.00,0.307
329.00,0.303
330.00,0.298
331.00,0.294
332.00,0.289
333.00,0.285
334.00,0.280
335.00,0.275
336.00,0.270
337.00,0.266
338.00,0.261
339.00,0.257
340.00,0.252
341.00,0.246
342.00,0.241
343.00,0.237
344.00,0.232
345.00,0.228
346.00,0.223
347.00,0.219
348.00,0.215
349.00,0.210
350.00,0.206
351.00,0.203
352.00,0.199
353.00,0.195
354.00,0.192
355.00,0.188
356.00,0.184
357.00,0.181
358.00,0.178
359.00,0.175
360.00,0.172
361.00,0.168
362.00,0.166
363.00,0.163
364.00,0.161
365.00,0.159
366.00,0.156
367.00,0.154
368.00,0.151
369.00,0.149
370.00,0.147
371.00,0.145
372.00,0.143
373.00,0.141
374.00,0.140
375.00,0.138
376.00,0.136
377.00,0.134
378.00,0.133
379.00,0.131
380.00,0.130
381.00,0.128
382.00,0.127
383.00,0.125
384.00,0.124
385.00,0.123
386.00,0.122
387.00,0.120
388.00,0.119
389.00,0.118
390.00,0.117
391.00,0.116
392.00,0.115
393.00,0.114
394.00,0.113
395.00,0.112
396.00,0.111
397.00,0.111
398.00,0.110
399.00,0.109
400.00,0.108
401.00,0.108
402.00,0.107
403.00,0.106
404.00,0.106
405.00,0.105
406.00,0.105
407.00,0.104
408.00,0.103
409.00,0.103
410.00,0.102
411.00,0.102
412.00,0.101
413.00,0.101
414.00,0.100
415.00,0.100
416.00,0.099
417.00,0.099
418.00,0.099
419.00,0.098
420.00,0.098
421.00,0.097
422.00,0.097
423.00,0.097
424.00,0.096
425.00,0.096
426.00,0.095
427.00,0.095
428.00,0.095
429.00,0.094
430.00,0.094
431.00,0.093
432.00,0.093
433.00,0.093
434.00,0.092
435.00,0.092
436.00,0.092
437.00,0.091
438.00,0.091
439.00,0.091
440.00,0.090
441.00,0.090
442.00,0.090
443.00,0.090
444.00,0.089
445.00,0.089
446.00,0.089
447.00,0.089
448.00,0.088
449.00,0.088
450.00,0.088
451.00,0.087
452.00,0.087
453.00,0.087
454.00,0.087
455.00,0.086
456.00,0.086
457.00,0.086
458.00,0.086
459.00,0.085
460.00,0.085
461.00,0.085
462.00,0.085
463.00,0.084
464.00,0.084
465.00,0.084
466.00,0.084
467.00,0.084
468.00,0.083
469.00,0.083
470.00,0.083
471.00,0.083
472.00,0.082
473.00,0.082
474.00,0.082
475.00,0.082
476.00,0.082
477.00,0.081
478.00,0.081
479.00,0.081
480.00,0.081
481.00,0.080
482.00,0.080
483.00,0.080
484.00,0.080
485.00,0.080
486.00,0.079
487.00,0.079
488.00,0.079
489.00,0.079
490.00,0.079
491.00,0.078
492.00,0.078
493.00,0.078
494.00,0.078
495.00,0.078
496.00,0.078
497.00,0.077
498.00,0.077
499.00,0.077
500.00,0.077
501.00,0.077
502.00,0.076
503.00,0.076
504.00,0.076
505.00,0.076
506.00,0.076
507.00,0.076
508.00,0.075
509.00,0.075
510.00,0.075
511.00,0.075
512.00,0.075
513.00,0.075
514.00,0.075
515.00,0.074
516.00,0.074
517.00,0.074
518.00,0.074
519.00,0.074
520.00,0.074
521.00,0.074
522.00,0.073
523.00,0.073
524.00,0.073
525.00,0.073
526.00,0.073
527.00,0.073
528.00,0.073
529.00,0.072
530.00,0.072
531.00,0.072
532.00,0.072
533.00,0.072
534.00,0.072
535.00,0.072
536.00,0.072
537.00,0.071
538.00,0.071
539.00,0.071
540.00,0.071
541.00,0.071
542.00,0.071
543.00,0.071
544.00,0.070
545.00,0.070
546.00,0.070
547.00,0.070
548.00,0.070
549.00,0.070
550.00,0.070
551.00,0.070
552.00,0.070
553.00,0.070
554.00,0.069
555.00,0.069
556.00,0.069
557.00,0.069
558.00,0.069
559.00,0.069
560.00,0.069
561.00,0.069
562.00,0.069
563.00,0.069
564.00,0.068
565.00,0.068
566.00,0.068
567.00,0.068
568.00,0.068
569.00,0.068
570.00,0.068
571.00,0.068
572.00,0.068
573.00,0.068
574.00,0.068
575.00,0.068
576.00,0.068
577.00,0.068
578.00,0.067
579.00,0.067
580.00,0.067
581.00,0.067
582.00,0.067
583.00,0.067
584.00,0.067
585.00,0.067
586.00,0.067
587.00,0.067
588.00,0.067
589.00,0.067
590.00,0.067
591.00,0.067
592.00,0.066
593.00,0.066
594.00,0.066
595.00,0.066
596.00,0.066
597.00,0.066
598.00,0.066
599.00,0.066
600.00,0.066
601.00,0.066
602.00,0.066
603.00,0.066
604.00,0.066
605.00,0.066
606.00,0.066
607.00,0.066
608.00,0.066
609.00,0.066
610.00,0.066
611.00,0.066
612.00,0.066
613.00,0.065
614.00,0.065
615.00,0.065
616.00,0.065
617.00,0.065
618.00,0.065
619.00,0.065
620.00,0.065
621.00,0.065
622.00,0.065
623.00,0.065
624.00,0.065
625.00,0.065
626.00,0.065
627.00,0.064
628.00,0.064
629.00,0.064
630.00,0.064
631.00,0.064
632.00,0.064
633.00,0.064
634.00,0.064
635.00,0.064
636.00,0.064
637.00,0.064
638.00,0.064
639.00,0.064
640.00,0.064
641.00,0.064
642.00,0.064
643.00,0.064
644.00,0.064
645.00,0.063
646.00,0.063
647.00,0.063
648.00,0.063
649.00,0.063
650.00,0.063
651.00,0.063
652.00,0.063
653.00,0.063
654.00,0.063
655.00,0.063
656.00,0.063
657.00,0.063
658.00,0.063
659.00,0.063
660.00,0.063
661.00,0.063
662.00,0.063
663.00,0.063
664.00,0.063
665.00,0.063
666.00,0.062
667.00,0.062
668.00,0.062
669.00,0.062
670.00,0.062
671.00,0.062
672.00,0.062
673.00,0.062
674.00,0.062
675.00,0.062
676.00,0.062
677.00,0.062
678.00,0.062
679.00,0.062
680.00,0.062
681.00,0.062
682.00,0.062
683.00,0.062
684.00,0.062
685.00,0.062
686.00,0.062
687.00,0.061
688.00,0.061
689.00,0.062
690.00,0.062
691.00,0.061
692.00,0.061
693.00,0.061
694.00,0.061
695.00,0.061
696.00,0.061
697.00,0.061
698.00,0.061
699.00,0.061
700.00,0.061
701.00,0.061
702.00,0.061
703.00,0.061
704.00,0.061
705.00,0.061
706.00,0.061
707.00,0.061
708.00,0.061
709.00,0.061
710.00,0.061
711.00,0.062
712.00,0.062
713.00,0.062
714.00,0.062
715.00,0.062
716.00,0.062
717.00,0.062
718.00,0.063
719.00,0.063
720.00,0.063
721.00,0.063
722.00,0.063
723.00,0.063
724.00,0.064
725.00,0.064
726.00,0.064
727.00,0.064
728.00,0.065
729.00,0.065
730.00,0.066
731.00,0.066
732.00,0.067
733.00,0.067
734.00,0.067
735.00,0.068
736.00,0.068
737.00,0.068
738.00,0.068
739.00,0.068
740.00,0.068
741.00,0.068
742.00,0.068
743.00,0.068
744.00,0.068
745.00,0.068
746.00,0.068
747.00,0.068
748.00,0.068
749.00,0.068
750.00,0.068
751.00,0.068
752.00,0.068
753.00,0.068
754.00,0.068
755.00,0.068
756.00,0.068
757.00,0.068
758.00,0.068
759.00,0.068
760.00,0.068
761.00,0.068
762.00,0.068
763.00,0.068
764.00,0.068
765.00,0.068
766.00,0.068
767.00,0.067
768.00,0.067
769.00,0.067
770.00,0.067
771.00,0.067
772.00,0.067
773.00,0.067
774.00,0.067
775.00,0.067
776.00,0.067
777.00,0.067
778.00,0.067
779.00,0.066
780.00,0.066
781.00,0.066
782.00,0.066
783.00,0.066
784.00,0.066
785.00,0.066
786.00,0.066
787.00,0.065
788.00,0.065
789.00,0.065
790.00,0.065
791.00,0.065
792.00,0.065
793.00,0.065
794.00,0.065
795.00,0.064
796.00,0.064
797.00,0.064
798.00,0.064
799.00,0.064
800.00,0.064
801.00,0.064
802.00,0.064
803.00,0.064
804.00,0.064
805.00,0.064
806.00,0.064
807.00,0.064
808.00,0.064
809.00,0.063
810.00,0.063
811.00,0.063
812.00,0.063
813.00,0.063
814.00,0.064
815.00,0.064
816.00,0.063
817.00,0.064
818.00,0.064
819.00,0.064
820.00,0.064
821.00,0.064
822.00,0.064
823.00,0.064
824.00,0.065
825.00,0.065
826.00,0.065
827.00,0.066
828.00,0.066
829.00,0.067
830.00,0.068
831.00,0.068
832.00,0.068
833.00,0.069
834.00,0.069
835.00,0.069
836.00,0.070
837.00,0.070
838.00,0.070
839.00,0.070
840.00,0.070
841.00,0.070
842.00,0.070
843.00,0.070
844.00,0.070
845.00,0.071
846.00,0.071
847.00,0.071
848.00,0.071
849.00,0.071
850.00,0.071
851.00,0.071
852.00,0.071
853.00,0.072
854.00,0.072
855.00,0.072
856.00,0.072
857.00,0.072
858.00,0.072
859.00,0.072
860.00,0.072
861.00,0.072
862.00,0.072
863.00,0.072
864.00,0.072
865.00,0.073
866.00,0.073
867.00,0.073
868.00,0.073
869.00,0.073
870.00,0.073
871.00,0.073
872.00,0.073
873.00,0.074
874.00,0.074
875.00,0.074
876.00,0.074
877.00,0.074
878.00,0.074
879.00,0.075
880.00,0.075
881.00,0.075
882.00,0.075
883.00,0.075
884.00,0.076
885.00,0.076
886.00,0.076
887.00,0.076
888.00,0.077
889.00,0.077
890.00,0.077
891.00,0.077
892.00,0.077
893.00,0.077
894.00,0.078
895.00,0.078
896.00,0.078
897.00,0.079
898.00,0.079
899.00,0.079
900.00,0.079
