"SuperPauseIPA50x - RawData"
"Wavelength nm.","Abs."
190.00,3.640
191.00,3.893
192.00,3.742
193.00,3.873
194.00,3.848
195.00,3.959
196.00,3.926
197.00,3.965
198.00,3.858
199.00,3.962
200.00,3.989
201.00,3.826
202.00,3.844
203.00,3.824
204.00,3.761
205.00,3.681
206.00,3.804
207.00,3.545
208.00,3.447
209.00,3.245
210.00,3.136
211.00,2.966
212.00,2.854
213.00,2.719
214.00,2.589
215.00,2.468
216.00,2.350
217.00,2.241
218.00,2.132
219.00,2.020
220.00,1.917
221.00,1.819
222.00,1.730
223.00,1.640
224.00,1.550
225.00,1.465
226.00,1.380
227.00,1.293
228.00,1.210
229.00,1.135
230.00,1.065
231.00,1.001
232.00,0.945
233.00,0.894
234.00,0.852
235.00,0.814
236.00,0.782
237.00,0.755
238.00,0.732
239.00,0.713
240.00,0.698
241.00,0.685
242.00,0.676
243.00,0.670
244.00,0.665
245.00,0.662
246.00,0.661
247.00,0.660
248.00,0.661
249.00,0.662
250.00,0.665
251.00,0.667
252.00,0.671
253.00,0.675
254.00,0.679
255.00,0.683
256.00,0.687
257.00,0.690
258.00,0.692
259.00,0.693
260.00,0.694
261.00,0.695
262.00,0.695
263.00,0.696
264.00,0.696
265.00,0.696
266.00,0.695
267.00,0.694
268.00,0.692
269.00,0.690
270.00,0.685
271.00,0.679
272.00,0.672
273.00,0.664
274.00,0.655
275.00,0.645
276.00,0.635
277.00,0.624
278.00,0.612
279.00,0.600
280.00,0.587
281.00,0.573
282.00,0.558
283.00,0.542
284.00,0.525
285.00,0.507
286.00,0.490
287.00,0.474
288.00,0.456
289.00,0.439
290.00,0.421
291.00,0.403
292.00,0.387
293.00,0.374
294.00,0.362
295.00,0.351
296.00,0.342
297.00,0.335
298.00,0.327
299.00,0.321
300.00,0.315
301.00,0.310
302.00,0.306
303.00,0.302
304.00,0.298
305.00,0.294
306.00,0.291
307.00,0.288
308.00,0.285
309.00,0.283
310.00,0.280
311.00,0.278
312.00,0.275
313.00,0.273
314.00,0.271
315.00,0.269
316.00,0.267
317.00,0.264
318.00,0.262
319.00,0.259
320.00,0.257
321.00,0.254
322.00,0.251
323.00,0.248
324.00,0.245
325.00,0.242
326.00,0.238
327.00,0.234
328.00,0.231
329.00,0.227
330.00,0.223
331.00,0.219
332.00,0.215
333.00,0.211
334.00,0.206
335.00,0.202
336.00,0.198
337.00,0.194
338.00,0.190
339.00,0.186
340.00,0.182
341.00,0.177
342.00,0.173
343.00,0.169
344.00,0.165
345.00,0.161
346.00,0.157
347.00,0.154
348.00,0.150
349.00,0.146
350.00,0.143
351.00,0.140
352.00,0.137
353.00,0.134
354.00,0.131
355.00,0.128
356.00,0.125
357.00,0.123
358.00,0.120
359.00,0.117
360.00,0.115
361.00,0.113
362.00,0.111
363.00,0.109
364.00,0.107
365.00,0.105
366.00,0.103
367.00,0.101
368.00,0.100
369.00,0.098
370.00,0.096
371.00,0.095
372.00,0.093
373.00,0.092
374.00,0.090
375.00,0.089
376.00,0.087
377.00,0.086
378.00,0.085
379.00,0.083
380.00,0.082
381.00,0.081
382.00,0.080
383.00,0.078
384.00,0.077
385.00,0.076
386.00,0.075
387.00,0.074
388.00,0.073
389.00,0.072
390.00,0.071
391.00,0.070
392.00,0.070
393.00,0.069
394.00,0.068
395.00,0.067
396.00,0.066
397.00,0.066
398.00,0.065
399.00,0.064
400.00,0.063
401.00,0.063
402.00,0.062
403.00,0.062
404.00,0.061
405.00,0.061
406.00,0.060
407.00,0.060
408.00,0.059
409.00,0.059
410.00,0.059
411.00,0.058
412.00,0.058
413.00,0.057
414.00,0.057
415.00,0.057
416.00,0.056
417.00,0.056
418.00,0.056
419.00,0.056
420.00,0.055
421.00,0.055
422.00,0.055
423.00,0.055
424.00,0.054
425.00,0.054
426.00,0.054
427.00,0.054
428.00,0.053
429.00,0.053
430.00,0.053
431.00,0.053
432.00,0.053
433.00,0.052
434.00,0.052
435.00,0.052
436.00,0.052
437.00,0.052
438.00,0.052
439.00,0.052
440.00,0.051
441.00,0.051
442.00,0.051
443.00,0.051
444.00,0.051
445.00,0.051
446.00,0.051
447.00,0.050
448.00,0.050
449.00,0.050
450.00,0.050
451.00,0.050
452.00,0.050
453.00,0.050
454.00,0.050
455.00,0.049
456.00,0.049
457.00,0.049
458.00,0.049
459.00,0.049
460.00,0.049
461.00,0.049
462.00,0.049
463.00,0.049
464.00,0.049
465.00,0.049
466.00,0.048
467.00,0.048
468.00,0.048
469.00,0.048
470.00,0.048
471.00,0.048
472.00,0.048
473.00,0.048
474.00,0.048
475.00,0.048
476.00,0.048
477.00,0.048
478.00,0.048
479.00,0.047
480.00,0.047
481.00,0.047
482.00,0.047
483.00,0.047
484.00,0.047
485.00,0.047
486.00,0.047
487.00,0.047
488.00,0.047
489.00,0.047
490.00,0.047
491.00,0.047
492.00,0.047
493.00,0.046
494.00,0.046
495.00,0.046
496.00,0.046
497.00,0.046
498.00,0.046
499.00,0.046
500.00,0.046
501.00,0.046
502.00,0.046
503.00,0.046
504.00,0.046
505.00,0.046
506.00,0.046
507.00,0.046
508.00,0.046
509.00,0.045
510.00,0.045
511.00,0.045
512.00,0.045
513.00,0.045
514.00,0.045
515.00,0.045
516.00,0.045
517.00,0.045
518.00,0.045
519.00,0.045
520.00,0.045
521.00,0.045
522.00,0.045
523.00,0.045
524.00,0.045
525.00,0.045
526.00,0.044
527.00,0.044
528.00,0.044
529.00,0.044
530.00,0.044
531.00,0.044
532.00,0.044
533.00,0.044
534.00,0.044
535.00,0.044
536.00,0.044
537.00,0.044
538.00,0.044
539.00,0.044
540.00,0.044
541.00,0.044
542.00,0.044
543.00,0.044
544.00,0.044
545.00,0.044
546.00,0.044
547.00,0.043
548.00,0.043
549.00,0.043
550.00,0.043
551.00,0.043
552.00,0.043
553.00,0.043
554.00,0.043
555.00,0.043
556.00,0.043
557.00,0.043
558.00,0.043
559.00,0.043
560.00,0.043
561.00,0.043
562.00,0.043
563.00,0.043
564.00,0.043
565.00,0.043
566.00,0.043
567.00,0.043
568.00,0.043
569.00,0.043
570.00,0.043
571.00,0.043
572.00,0.043
573.00,0.043
574.00,0.042
575.00,0.042
576.00,0.042
577.00,0.042
578.00,0.042
579.00,0.042
580.00,0.042
581.00,0.042
582.00,0.042
583.00,0.042
584.00,0.042
585.00,0.042
586.00,0.042
587.00,0.042
588.00,0.042
589.00,0.042
590.00,0.042
591.00,0.042
592.00,0.042
593.00,0.042
594.00,0.042
595.00,0.042
596.00,0.042
597.00,0.042
598.00,0.042
599.00,0.042
600.00,0.042
601.00,0.042
602.00,0.042
603.00,0.042
604.00,0.042
605.00,0.042
606.00,0.042
607.00,0.042
608.00,0.042
609.00,0.042
610.00,0.042
611.00,0.042
612.00,0.042
613.00,0.042
614.00,0.042
615.00,0.042
616.00,0.042
617.00,0.042
618.00,0.042
619.00,0.042
620.00,0.042
621.00,0.042
622.00,0.042
623.00,0.042
624.00,0.042
625.00,0.042
626.00,0.042
627.00,0.042
628.00,0.042
629.00,0.042
630.00,0.042
631.00,0.042
632.00,0.042
633.00,0.042
634.00,0.042
635.00,0.042
636.00,0.042
637.00,0.042
638.00,0.042
639.00,0.042
640.00,0.042
641.00,0.042
642.00,0.042
643.00,0.042
644.00,0.042
645.00,0.042
646.00,0.042
647.00,0.042
648.00,0.042
649.00,0.042
650.00,0.042
651.00,0.042
652.00,0.042
653.00,0.042
654.00,0.042
655.00,0.042
656.00,0.042
657.00,0.042
658.00,0.042
659.00,0.042
660.00,0.042
661.00,0.042
662.00,0.042
663.00,0.042
664.00,0.042
665.00,0.042
666.00,0.042
667.00,0.042
668.00,0.042
669.00,0.042
670.00,0.042
671.00,0.042
672.00,0.042
673.00,0.042
674.00,0.042
675.00,0.042
676.00,0.042
677.00,0.042
678.00,0.042
679.00,0.042
680.00,0.042
681.00,0.042
682.00,0.042
683.00,0.042
684.00,0.042
685.00,0.042
686.00,0.042
687.00,0.042
688.00,0.042
689.00,0.042
690.00,0.042
691.00,0.042
692.00,0.042
693.00,0.042
694.00,0.042
695.00,0.042
696.00,0.042
697.00,0.042
698.00,0.042
699.00,0.042
700.00,0.042
701.00,0.042
702.00,0.042
703.00,0.042
704.00,0.042
705.00,0.042
706.00,0.043
707.00,0.043
708.00,0.043
709.00,0.043
710.00,0.043
711.00,0.043
712.00,0.043
713.00,0.043
714.00,0.043
715.00,0.044
716.00,0.044
717.00,0.044
718.00,0.044
719.00,0.044
720.00,0.045
721.00,0.045
722.00,0.045
723.00,0.045
724.00,0.046
725.00,0.046
726.00,0.046
727.00,0.047
728.00,0.047
729.00,0.047
730.00,0.048
731.00,0.048
732.00,0.049
733.00,0.049
734.00,0.050
735.00,0.050
736.00,0.051
737.00,0.051
738.00,0.051
739.00,0.051
740.00,0.051
741.00,0.051
742.00,0.051
743.00,0.051
744.00,0.051
745.00,0.051
746.00,0.051
747.00,0.051
748.00,0.051
749.00,0.051
750.00,0.051
751.00,0.051
752.00,0.051
753.00,0.051
754.00,0.051
755.00,0.051
756.00,0.051
757.00,0.051
758.00,0.051
759.00,0.051
760.00,0.051
761.00,0.051
762.00,0.051
763.00,0.051
764.00,0.051
765.00,0.051
766.00,0.051
767.00,0.051
768.00,0.051
769.00,0.051
770.00,0.051
771.00,0.051
772.00,0.050
773.00,0.050
774.00,0.050
775.00,0.050
776.00,0.050
777.00,0.050
778.00,0.050
779.00,0.050
780.00,0.050
781.00,0.050
782.00,0.049
783.00,0.049
784.00,0.049
785.00,0.049
786.00,0.049
787.00,0.049
788.00,0.049
789.00,0.049
790.00,0.048
791.00,0.048
792.00,0.048
793.00,0.048
794.00,0.048
795.00,0.048
796.00,0.048
797.00,0.048
798.00,0.048
799.00,0.048
800.00,0.047
801.00,0.047
802.00,0.047
803.00,0.047
804.00,0.047
805.00,0.047
806.00,0.047
807.00,0.047
808.00,0.047
809.00,0.047
810.00,0.047
811.00,0.047
812.00,0.047
813.00,0.047
814.00,0.047
815.00,0.047
816.00,0.047
817.00,0.048
818.00,0.048
819.00,0.048
820.00,0.048
821.00,0.048
822.00,0.048
823.00,0.048
824.00,0.049
825.00,0.049
826.00,0.050
827.00,0.050
828.00,0.051
829.00,0.051
830.00,0.052
831.00,0.052
832.00,0.053
833.00,0.053
834.00,0.054
835.00,0.054
836.00,0.054
837.00,0.054
838.00,0.054
839.00,0.054
840.00,0.055
841.00,0.055
842.00,0.055
843.00,0.055
844.00,0.055
845.00,0.055
846.00,0.055
847.00,0.055
848.00,0.055
849.00,0.055
850.00,0.055
851.00,0.056
852.00,0.056
853.00,0.056
854.00,0.056
855.00,0.056
856.00,0.056
857.00,0.056
858.00,0.056
859.00,0.056
860.00,0.056
861.00,0.057
862.00,0.057
863.00,0.057
864.00,0.057
865.00,0.057
866.00,0.057
867.00,0.057
868.00,0.057
869.00,0.057
870.00,0.058
871.00,0.058
872.00,0.058
873.00,0.058
874.00,0.058
875.00,0.058
876.00,0.059
877.00,0.059
878.00,0.059
879.00,0.059
880.00,0.060
881.00,0.060
882.00,0.060
883.00,0.060
884.00,0.061
885.00,0.061
886.00,0.061
887.00,0.061
888.00,0.061
889.00,0.062
890.00,0.062
891.00,0.062
892.00,0.062
893.00,0.063
894.00,0.063
895.00,0.063
896.00,0.063
897.00,0.064
898.00,0.064
899.00,0.064
900.00,0.064
