"File_170130_162619 - RawData"
"Wavelength nm.","Abs."
190.00,3.195
191.00,3.169
192.00,3.031
193.00,3.462
194.00,3.365
195.00,3.397
196.00,3.452
197.00,3.261
198.00,3.338
199.00,3.424
200.00,3.369
201.00,3.390
202.00,3.246
203.00,3.228
204.00,3.109
205.00,3.007
206.00,2.883
207.00,2.799
208.00,2.664
209.00,2.568
210.00,2.447
211.00,2.347
212.00,2.258
213.00,2.168
214.00,2.078
215.00,1.992
216.00,1.911
217.00,1.832
218.00,1.754
219.00,1.675
220.00,1.601
221.00,1.530
222.00,1.461
223.00,1.392
224.00,1.322
225.00,1.255
226.00,1.188
227.00,1.120
228.00,1.055
229.00,0.996
230.00,0.939
231.00,0.886
232.00,0.837
233.00,0.794
234.00,0.756
235.00,0.724
236.00,0.696
237.00,0.671
238.00,0.650
239.00,0.632
240.00,0.617
241.00,0.605
242.00,0.596
243.00,0.590
244.00,0.585
245.00,0.582
246.00,0.580
247.00,0.579
248.00,0.579
249.00,0.580
250.00,0.582
251.00,0.584
252.00,0.587
253.00,0.590
254.00,0.593
255.00,0.597
256.00,0.600
257.00,0.604
258.00,0.607
259.00,0.610
260.00,0.613
261.00,0.616
262.00,0.619
263.00,0.622
264.00,0.625
265.00,0.627
266.00,0.629
267.00,0.632
268.00,0.634
269.00,0.635
270.00,0.635
271.00,0.635
272.00,0.636
273.00,0.635
274.00,0.633
275.00,0.631
276.00,0.628
277.00,0.624
278.00,0.619
279.00,0.614
280.00,0.608
281.00,0.603
282.00,0.595
283.00,0.587
284.00,0.578
285.00,0.568
286.00,0.559
287.00,0.550
288.00,0.541
289.00,0.532
290.00,0.521
291.00,0.510
292.00,0.501
293.00,0.492
294.00,0.484
295.00,0.477
296.00,0.470
297.00,0.463
298.00,0.456
299.00,0.449
300.00,0.443
301.00,0.436
302.00,0.429
303.00,0.423
304.00,0.417
305.00,0.410
306.00,0.404
307.00,0.397
308.00,0.390
309.00,0.384
310.00,0.377
311.00,0.370
312.00,0.365
313.00,0.358
314.00,0.352
315.00,0.346
316.00,0.341
317.00,0.335
318.00,0.329
319.00,0.323
320.00,0.317
321.00,0.311
322.00,0.306
323.00,0.300
324.00,0.294
325.00,0.289
326.00,0.283
327.00,0.278
328.00,0.272
329.00,0.267
330.00,0.261
331.00,0.256
332.00,0.251
333.00,0.246
334.00,0.241
335.00,0.236
336.00,0.232
337.00,0.227
338.00,0.223
339.00,0.219
340.00,0.215
341.00,0.209
342.00,0.205
343.00,0.201
344.00,0.197
345.00,0.193
346.00,0.190
347.00,0.186
348.00,0.183
349.00,0.179
350.00,0.176
351.00,0.173
352.00,0.170
353.00,0.167
354.00,0.164
355.00,0.161
356.00,0.159
357.00,0.156
358.00,0.153
359.00,0.151
360.00,0.148
361.00,0.146
362.00,0.144
363.00,0.142
364.00,0.140
365.00,0.137
366.00,0.135
367.00,0.133
368.00,0.132
369.00,0.130
370.00,0.128
371.00,0.126
372.00,0.124
373.00,0.123
374.00,0.121
375.00,0.119
376.00,0.118
377.00,0.117
378.00,0.115
379.00,0.114
380.00,0.112
381.00,0.111
382.00,0.109
383.00,0.108
384.00,0.107
385.00,0.105
386.00,0.104
387.00,0.103
388.00,0.102
389.00,0.101
390.00,0.100
391.00,0.098
392.00,0.098
393.00,0.097
394.00,0.095
395.00,0.094
396.00,0.094
397.00,0.093
398.00,0.092
399.00,0.091
400.00,0.090
401.00,0.089
402.00,0.088
403.00,0.088
404.00,0.087
405.00,0.086
406.00,0.085
407.00,0.085
408.00,0.084
409.00,0.083
410.00,0.082
411.00,0.082
412.00,0.081
413.00,0.080
414.00,0.080
415.00,0.079
416.00,0.079
417.00,0.078
418.00,0.078
419.00,0.077
420.00,0.077
421.00,0.076
422.00,0.075
423.00,0.075
424.00,0.074
425.00,0.074
426.00,0.073
427.00,0.073
428.00,0.072
429.00,0.072
430.00,0.071
431.00,0.071
432.00,0.071
433.00,0.070
434.00,0.070
435.00,0.069
436.00,0.069
437.00,0.068
438.00,0.068
439.00,0.068
440.00,0.067
441.00,0.067
442.00,0.066
443.00,0.066
444.00,0.065
445.00,0.065
446.00,0.065
447.00,0.064
448.00,0.064
449.00,0.064
450.00,0.063
451.00,0.063
452.00,0.063
453.00,0.062
454.00,0.062
455.00,0.062
456.00,0.061
457.00,0.061
458.00,0.061
459.00,0.060
460.00,0.060
461.00,0.060
462.00,0.059
463.00,0.059
464.00,0.059
465.00,0.059
466.00,0.058
467.00,0.058
468.00,0.058
469.00,0.057
470.00,0.057
471.00,0.057
472.00,0.056
473.00,0.056
474.00,0.056
475.00,0.056
476.00,0.055
477.00,0.055
478.00,0.055
479.00,0.054
480.00,0.054
481.00,0.054
482.00,0.054
483.00,0.053
484.00,0.053
485.00,0.053
486.00,0.053
487.00,0.052
488.00,0.052
489.00,0.052
490.00,0.052
491.00,0.051
492.00,0.051
493.00,0.051
494.00,0.051
495.00,0.051
496.00,0.050
497.00,0.050
498.00,0.050
499.00,0.050
500.00,0.050
501.00,0.049
502.00,0.049
503.00,0.049
504.00,0.049
505.00,0.049
506.00,0.049
507.00,0.048
508.00,0.048
509.00,0.048
510.00,0.048
511.00,0.048
512.00,0.048
513.00,0.047
514.00,0.047
515.00,0.047
516.00,0.047
517.00,0.047
518.00,0.047
519.00,0.047
520.00,0.046
521.00,0.046
522.00,0.046
523.00,0.046
524.00,0.046
525.00,0.046
526.00,0.046
527.00,0.045
528.00,0.045
529.00,0.045
530.00,0.045
531.00,0.045
532.00,0.045
533.00,0.045
534.00,0.045
535.00,0.044
536.00,0.045
537.00,0.044
538.00,0.044
539.00,0.044
540.00,0.044
541.00,0.044
542.00,0.044
543.00,0.044
544.00,0.044
545.00,0.043
546.00,0.043
547.00,0.043
548.00,0.043
549.00,0.043
550.00,0.043
551.00,0.043
552.00,0.043
553.00,0.043
554.00,0.043
555.00,0.043
556.00,0.043
557.00,0.042
558.00,0.042
559.00,0.042
560.00,0.042
561.00,0.042
562.00,0.042
563.00,0.042
564.00,0.042
565.00,0.042
566.00,0.042
567.00,0.042
568.00,0.042
569.00,0.041
570.00,0.041
571.00,0.041
572.00,0.041
573.00,0.041
574.00,0.041
575.00,0.041
576.00,0.041
577.00,0.041
578.00,0.041
579.00,0.041
580.00,0.041
581.00,0.041
582.00,0.041
583.00,0.041
584.00,0.041
585.00,0.040
586.00,0.040
587.00,0.040
588.00,0.040
589.00,0.040
590.00,0.040
591.00,0.040
592.00,0.040
593.00,0.040
594.00,0.040
595.00,0.040
596.00,0.040
597.00,0.040
598.00,0.040
599.00,0.040
600.00,0.040
601.00,0.040
602.00,0.040
603.00,0.040
604.00,0.040
605.00,0.040
606.00,0.040
607.00,0.040
608.00,0.040
609.00,0.040
610.00,0.040
611.00,0.040
612.00,0.040
613.00,0.040
614.00,0.039
615.00,0.039
616.00,0.039
617.00,0.039
618.00,0.039
619.00,0.039
620.00,0.039
621.00,0.039
622.00,0.039
623.00,0.039
624.00,0.039
625.00,0.039
626.00,0.039
627.00,0.039
628.00,0.039
629.00,0.039
630.00,0.039
631.00,0.039
632.00,0.039
633.00,0.039
634.00,0.039
635.00,0.039
636.00,0.038
637.00,0.038
638.00,0.038
639.00,0.038
640.00,0.038
641.00,0.038
642.00,0.038
643.00,0.038
644.00,0.038
645.00,0.038
646.00,0.038
647.00,0.038
648.00,0.038
649.00,0.038
650.00,0.038
651.00,0.038
652.00,0.038
653.00,0.038
654.00,0.038
655.00,0.038
656.00,0.038
657.00,0.038
658.00,0.038
659.00,0.038
660.00,0.038
661.00,0.038
662.00,0.038
663.00,0.038
664.00,0.038
665.00,0.038
666.00,0.038
667.00,0.038
668.00,0.038
669.00,0.038
670.00,0.038
671.00,0.038
672.00,0.038
673.00,0.038
674.00,0.038
675.00,0.038
676.00,0.038
677.00,0.038
678.00,0.038
679.00,0.038
680.00,0.038
681.00,0.038
682.00,0.038
683.00,0.038
684.00,0.038
685.00,0.038
686.00,0.038
687.00,0.038
688.00,0.038
689.00,0.038
690.00,0.038
691.00,0.038
692.00,0.038
693.00,0.038
694.00,0.038
695.00,0.038
696.00,0.038
697.00,0.038
698.00,0.038
699.00,0.038
700.00,0.038
701.00,0.038
702.00,0.038
703.00,0.038
704.00,0.038
705.00,0.038
706.00,0.038
707.00,0.038
708.00,0.038
709.00,0.039
710.00,0.039
711.00,0.039
712.00,0.039
713.00,0.039
714.00,0.039
715.00,0.039
716.00,0.039
717.00,0.040
718.00,0.040
719.00,0.040
720.00,0.040
721.00,0.040
722.00,0.040
723.00,0.041
724.00,0.041
725.00,0.041
726.00,0.041
727.00,0.042
728.00,0.042
729.00,0.042
730.00,0.043
731.00,0.044
732.00,0.044
733.00,0.044
734.00,0.045
735.00,0.045
736.00,0.045
737.00,0.045
738.00,0.046
739.00,0.046
740.00,0.046
741.00,0.046
742.00,0.046
743.00,0.046
744.00,0.046
745.00,0.046
746.00,0.046
747.00,0.046
748.00,0.046
749.00,0.046
750.00,0.046
751.00,0.046
752.00,0.046
753.00,0.046
754.00,0.046
755.00,0.046
756.00,0.046
757.00,0.046
758.00,0.046
759.00,0.046
760.00,0.047
761.00,0.046
762.00,0.046
763.00,0.046
764.00,0.046
765.00,0.046
766.00,0.046
767.00,0.046
768.00,0.046
769.00,0.046
770.00,0.046
771.00,0.046
772.00,0.046
773.00,0.046
774.00,0.046
775.00,0.046
776.00,0.045
777.00,0.046
778.00,0.045
779.00,0.045
780.00,0.045
781.00,0.045
782.00,0.045
783.00,0.045
784.00,0.045
785.00,0.045
786.00,0.045
787.00,0.045
788.00,0.045
789.00,0.045
790.00,0.044
791.00,0.044
792.00,0.044
793.00,0.044
794.00,0.044
795.00,0.044
796.00,0.044
797.00,0.044
798.00,0.044
799.00,0.044
800.00,0.043
801.00,0.043
802.00,0.043
803.00,0.043
804.00,0.043
805.00,0.043
806.00,0.043
807.00,0.043
808.00,0.043
809.00,0.043
810.00,0.043
811.00,0.043
812.00,0.043
813.00,0.043
814.00,0.043
815.00,0.043
816.00,0.043
817.00,0.043
818.00,0.043
819.00,0.043
820.00,0.043
821.00,0.044
822.00,0.044
823.00,0.044
824.00,0.044
825.00,0.045
826.00,0.045
827.00,0.046
828.00,0.046
829.00,0.047
830.00,0.047
831.00,0.048
832.00,0.048
833.00,0.048
834.00,0.049
835.00,0.049
836.00,0.049
837.00,0.049
838.00,0.049
839.00,0.050
840.00,0.050
841.00,0.050
842.00,0.050
843.00,0.050
844.00,0.050
845.00,0.050
846.00,0.051
847.00,0.051
848.00,0.051
849.00,0.051
850.00,0.051
851.00,0.051
852.00,0.051
853.00,0.051
854.00,0.052
855.00,0.052
856.00,0.052
857.00,0.052
858.00,0.052
859.00,0.052
860.00,0.052
861.00,0.052
862.00,0.053
863.00,0.053
864.00,0.053
865.00,0.053
866.00,0.053
867.00,0.053
868.00,0.053
869.00,0.054
870.00,0.054
871.00,0.054
872.00,0.054
873.00,0.054
874.00,0.055
875.00,0.055
876.00,0.055
877.00,0.055
878.00,0.055
879.00,0.056
880.00,0.056
881.00,0.056
882.00,0.056
883.00,0.057
884.00,0.057
885.00,0.057
886.00,0.057
887.00,0.058
888.00,0.058
889.00,0.058
890.00,0.058
891.00,0.059
892.00,0.059
893.00,0.059
894.00,0.059
895.00,0.060
896.00,0.060
897.00,0.060
898.00,0.060
899.00,0.060
900.00,0.061
