"LoupRougeWitBie - RawData"
"Wavelength nm.","Abs."
190.00,3.648
191.00,3.408
192.00,3.372
193.00,3.483
194.00,3.334
195.00,3.655
196.00,3.533
197.00,3.639
198.00,3.463
199.00,3.526
200.00,3.559
201.00,3.547
202.00,3.358
203.00,3.494
204.00,3.309
205.00,3.367
206.00,3.336
207.00,3.240
208.00,3.157
209.00,3.108
210.00,2.976
211.00,2.853
212.00,2.728
213.00,2.636
214.00,2.523
215.00,2.413
216.00,2.314
217.00,2.211
218.00,2.120
219.00,2.022
220.00,1.928
221.00,1.838
222.00,1.748
223.00,1.660
224.00,1.569
225.00,1.484
226.00,1.395
227.00,1.301
228.00,1.210
229.00,1.125
230.00,1.046
231.00,0.974
232.00,0.912
233.00,0.857
234.00,0.810
235.00,0.771
236.00,0.737
237.00,0.710
238.00,0.688
239.00,0.671
240.00,0.657
241.00,0.647
242.00,0.640
243.00,0.636
244.00,0.633
245.00,0.632
246.00,0.633
247.00,0.634
248.00,0.636
249.00,0.638
250.00,0.641
251.00,0.645
252.00,0.649
253.00,0.652
254.00,0.656
255.00,0.659
256.00,0.663
257.00,0.666
258.00,0.668
259.00,0.669
260.00,0.670
261.00,0.671
262.00,0.672
263.00,0.673
264.00,0.673
265.00,0.673
266.00,0.672
267.00,0.671
268.00,0.668
269.00,0.665
270.00,0.660
271.00,0.655
272.00,0.649
273.00,0.642
274.00,0.633
275.00,0.624
276.00,0.614
277.00,0.602
278.00,0.590
279.00,0.577
280.00,0.564
281.00,0.551
282.00,0.537
283.00,0.522
284.00,0.506
285.00,0.490
286.00,0.474
287.00,0.459
288.00,0.445
289.00,0.431
290.00,0.416
291.00,0.401
292.00,0.387
293.00,0.374
294.00,0.364
295.00,0.354
296.00,0.346
297.00,0.338
298.00,0.331
299.00,0.325
300.00,0.319
301.00,0.314
302.00,0.309
303.00,0.304
304.00,0.300
305.00,0.297
306.00,0.293
307.00,0.290
308.00,0.287
309.00,0.284
310.00,0.281
311.00,0.278
312.00,0.276
313.00,0.274
314.00,0.272
315.00,0.270
316.00,0.267
317.00,0.265
318.00,0.263
319.00,0.261
320.00,0.258
321.00,0.256
322.00,0.254
323.00,0.251
324.00,0.248
325.00,0.245
326.00,0.242
327.00,0.239
328.00,0.236
329.00,0.233
330.00,0.230
331.00,0.227
332.00,0.223
333.00,0.220
334.00,0.216
335.00,0.213
336.00,0.209
337.00,0.206
338.00,0.202
339.00,0.199
340.00,0.195
341.00,0.191
342.00,0.187
343.00,0.183
344.00,0.180
345.00,0.176
346.00,0.173
347.00,0.170
348.00,0.166
349.00,0.163
350.00,0.160
351.00,0.157
352.00,0.153
353.00,0.150
354.00,0.148
355.00,0.145
356.00,0.142
357.00,0.139
358.00,0.137
359.00,0.134
360.00,0.131
361.00,0.129
362.00,0.126
363.00,0.124
364.00,0.123
365.00,0.120
366.00,0.118
367.00,0.116
368.00,0.115
369.00,0.113
370.00,0.111
371.00,0.109
372.00,0.107
373.00,0.106
374.00,0.104
375.00,0.103
376.00,0.101
377.00,0.100
378.00,0.098
379.00,0.097
380.00,0.096
381.00,0.094
382.00,0.093
383.00,0.092
384.00,0.091
385.00,0.090
386.00,0.089
387.00,0.088
388.00,0.087
389.00,0.086
390.00,0.085
391.00,0.085
392.00,0.084
393.00,0.083
394.00,0.082
395.00,0.081
396.00,0.081
397.00,0.080
398.00,0.080
399.00,0.079
400.00,0.078
401.00,0.078
402.00,0.078
403.00,0.077
404.00,0.077
405.00,0.076
406.00,0.076
407.00,0.075
408.00,0.075
409.00,0.074
410.00,0.074
411.00,0.074
412.00,0.073
413.00,0.073
414.00,0.073
415.00,0.072
416.00,0.072
417.00,0.072
418.00,0.071
419.00,0.071
420.00,0.071
421.00,0.070
422.00,0.070
423.00,0.070
424.00,0.070
425.00,0.069
426.00,0.069
427.00,0.069
428.00,0.068
429.00,0.068
430.00,0.068
431.00,0.068
432.00,0.067
433.00,0.067
434.00,0.067
435.00,0.067
436.00,0.066
437.00,0.066
438.00,0.066
439.00,0.066
440.00,0.066
441.00,0.065
442.00,0.065
443.00,0.065
444.00,0.065
445.00,0.065
446.00,0.064
447.00,0.064
448.00,0.064
449.00,0.064
450.00,0.064
451.00,0.064
452.00,0.063
453.00,0.063
454.00,0.063
455.00,0.063
456.00,0.063
457.00,0.063
458.00,0.062
459.00,0.062
460.00,0.062
461.00,0.062
462.00,0.062
463.00,0.062
464.00,0.061
465.00,0.061
466.00,0.061
467.00,0.061
468.00,0.061
469.00,0.061
470.00,0.061
471.00,0.060
472.00,0.060
473.00,0.060
474.00,0.060
475.00,0.060
476.00,0.060
477.00,0.060
478.00,0.059
479.00,0.059
480.00,0.059
481.00,0.059
482.00,0.059
483.00,0.059
484.00,0.059
485.00,0.058
486.00,0.058
487.00,0.058
488.00,0.058
489.00,0.058
490.00,0.058
491.00,0.058
492.00,0.057
493.00,0.057
494.00,0.057
495.00,0.057
496.00,0.057
497.00,0.057
498.00,0.057
499.00,0.057
500.00,0.057
501.00,0.057
502.00,0.056
503.00,0.056
504.00,0.056
505.00,0.056
506.00,0.056
507.00,0.056
508.00,0.056
509.00,0.056
510.00,0.056
511.00,0.055
512.00,0.055
513.00,0.055
514.00,0.055
515.00,0.055
516.00,0.055
517.00,0.055
518.00,0.055
519.00,0.055
520.00,0.055
521.00,0.054
522.00,0.054
523.00,0.054
524.00,0.054
525.00,0.054
526.00,0.054
527.00,0.054
528.00,0.054
529.00,0.054
530.00,0.054
531.00,0.054
532.00,0.053
533.00,0.053
534.00,0.053
535.00,0.053
536.00,0.053
537.00,0.053
538.00,0.053
539.00,0.053
540.00,0.053
541.00,0.053
542.00,0.053
543.00,0.053
544.00,0.053
545.00,0.052
546.00,0.052
547.00,0.052
548.00,0.052
549.00,0.052
550.00,0.052
551.00,0.052
552.00,0.052
553.00,0.052
554.00,0.052
555.00,0.052
556.00,0.052
557.00,0.052
558.00,0.051
559.00,0.051
560.00,0.051
561.00,0.051
562.00,0.051
563.00,0.051
564.00,0.051
565.00,0.051
566.00,0.051
567.00,0.051
568.00,0.051
569.00,0.051
570.00,0.051
571.00,0.051
572.00,0.051
573.00,0.051
574.00,0.050
575.00,0.051
576.00,0.050
577.00,0.050
578.00,0.050
579.00,0.050
580.00,0.050
581.00,0.050
582.00,0.050
583.00,0.050
584.00,0.050
585.00,0.050
586.00,0.050
587.00,0.050
588.00,0.050
589.00,0.050
590.00,0.050
591.00,0.050
592.00,0.050
593.00,0.050
594.00,0.050
595.00,0.050
596.00,0.050
597.00,0.050
598.00,0.050
599.00,0.050
600.00,0.050
601.00,0.050
602.00,0.050
603.00,0.050
604.00,0.050
605.00,0.050
606.00,0.050
607.00,0.050
608.00,0.050
609.00,0.050
610.00,0.050
611.00,0.050
612.00,0.049
613.00,0.049
614.00,0.049
615.00,0.049
616.00,0.049
617.00,0.049
618.00,0.049
619.00,0.049
620.00,0.049
621.00,0.049
622.00,0.049
623.00,0.049
624.00,0.049
625.00,0.049
626.00,0.049
627.00,0.049
628.00,0.049
629.00,0.049
630.00,0.049
631.00,0.049
632.00,0.049
633.00,0.049
634.00,0.049
635.00,0.049
636.00,0.049
637.00,0.048
638.00,0.048
639.00,0.048
640.00,0.048
641.00,0.048
642.00,0.048
643.00,0.048
644.00,0.048
645.00,0.048
646.00,0.048
647.00,0.048
648.00,0.048
649.00,0.048
650.00,0.048
651.00,0.048
652.00,0.048
653.00,0.048
654.00,0.048
655.00,0.048
656.00,0.048
657.00,0.048
658.00,0.048
659.00,0.048
660.00,0.048
661.00,0.048
662.00,0.048
663.00,0.048
664.00,0.048
665.00,0.048
666.00,0.048
667.00,0.048
668.00,0.048
669.00,0.048
670.00,0.048
671.00,0.048
672.00,0.048
673.00,0.048
674.00,0.048
675.00,0.048
676.00,0.048
677.00,0.048
678.00,0.048
679.00,0.048
680.00,0.048
681.00,0.048
682.00,0.048
683.00,0.048
684.00,0.048
685.00,0.048
686.00,0.048
687.00,0.048
688.00,0.048
689.00,0.048
690.00,0.048
691.00,0.048
692.00,0.048
693.00,0.048
694.00,0.048
695.00,0.048
696.00,0.048
697.00,0.048
698.00,0.048
699.00,0.048
700.00,0.048
701.00,0.048
702.00,0.048
703.00,0.048
704.00,0.048
705.00,0.048
706.00,0.048
707.00,0.048
708.00,0.048
709.00,0.048
710.00,0.048
711.00,0.048
712.00,0.049
713.00,0.049
714.00,0.049
715.00,0.049
716.00,0.049
717.00,0.049
718.00,0.050
719.00,0.050
720.00,0.050
721.00,0.050
722.00,0.050
723.00,0.050
724.00,0.051
725.00,0.051
726.00,0.051
727.00,0.052
728.00,0.052
729.00,0.052
730.00,0.053
731.00,0.053
732.00,0.054
733.00,0.054
734.00,0.055
735.00,0.055
736.00,0.055
737.00,0.055
738.00,0.056
739.00,0.056
740.00,0.056
741.00,0.056
742.00,0.056
743.00,0.056
744.00,0.056
745.00,0.056
746.00,0.056
747.00,0.056
748.00,0.056
749.00,0.056
750.00,0.056
751.00,0.056
752.00,0.056
753.00,0.056
754.00,0.056
755.00,0.056
756.00,0.056
757.00,0.056
758.00,0.056
759.00,0.056
760.00,0.056
761.00,0.056
762.00,0.056
763.00,0.056
764.00,0.056
765.00,0.056
766.00,0.056
767.00,0.055
768.00,0.055
769.00,0.055
770.00,0.055
771.00,0.055
772.00,0.055
773.00,0.055
774.00,0.055
775.00,0.055
776.00,0.055
777.00,0.055
778.00,0.055
779.00,0.055
780.00,0.054
781.00,0.054
782.00,0.054
783.00,0.054
784.00,0.054
785.00,0.054
786.00,0.054
787.00,0.054
788.00,0.054
789.00,0.053
790.00,0.053
791.00,0.053
792.00,0.053
793.00,0.053
794.00,0.053
795.00,0.053
796.00,0.053
797.00,0.053
798.00,0.053
799.00,0.053
800.00,0.052
801.00,0.052
802.00,0.052
803.00,0.052
804.00,0.052
805.00,0.052
806.00,0.052
807.00,0.052
808.00,0.052
809.00,0.052
810.00,0.052
811.00,0.052
812.00,0.052
813.00,0.052
814.00,0.052
815.00,0.052
816.00,0.052
817.00,0.052
818.00,0.052
819.00,0.052
820.00,0.052
821.00,0.053
822.00,0.053
823.00,0.053
824.00,0.053
825.00,0.054
826.00,0.054
827.00,0.055
828.00,0.055
829.00,0.056
830.00,0.056
831.00,0.057
832.00,0.057
833.00,0.058
834.00,0.058
835.00,0.058
836.00,0.058
837.00,0.059
838.00,0.059
839.00,0.059
840.00,0.059
841.00,0.059
842.00,0.059
843.00,0.059
844.00,0.059
845.00,0.059
846.00,0.060
847.00,0.060
848.00,0.060
849.00,0.060
850.00,0.060
851.00,0.060
852.00,0.060
853.00,0.060
854.00,0.060
855.00,0.061
856.00,0.061
857.00,0.061
858.00,0.061
859.00,0.061
860.00,0.061
861.00,0.061
862.00,0.061
863.00,0.061
864.00,0.062
865.00,0.062
866.00,0.062
867.00,0.062
868.00,0.062
869.00,0.062
870.00,0.062
871.00,0.063
872.00,0.063
873.00,0.063
874.00,0.063
875.00,0.063
876.00,0.064
877.00,0.064
878.00,0.064
879.00,0.064
880.00,0.064
881.00,0.065
882.00,0.065
883.00,0.065
884.00,0.065
885.00,0.066
886.00,0.066
887.00,0.066
888.00,0.066
889.00,0.067
890.00,0.067
891.00,0.067
892.00,0.067
893.00,0.067
894.00,0.068
895.00,0.068
896.00,0.068
897.00,0.068
898.00,0.069
899.00,0.069
900.00,0.069
