"LSTGrosMollet100x - RawData"
"Wavelength nm.","Abs."
190.00,2.817
191.00,3.404
192.00,2.994
193.00,3.047
194.00,3.128
195.00,3.245
196.00,3.072
197.00,3.040
198.00,2.912
199.00,2.840
200.00,2.763
201.00,2.680
202.00,2.600
203.00,2.513
204.00,2.424
205.00,2.339
206.00,2.279
207.00,2.208
208.00,2.134
209.00,2.071
210.00,2.008
211.00,1.955
212.00,1.904
213.00,1.852
214.00,1.803
215.00,1.757
216.00,1.711
217.00,1.664
218.00,1.621
219.00,1.578
220.00,1.536
221.00,1.495
222.00,1.455
223.00,1.415
224.00,1.372
225.00,1.328
226.00,1.284
227.00,1.239
228.00,1.193
229.00,1.147
230.00,1.099
231.00,1.053
232.00,1.007
233.00,0.959
234.00,0.914
235.00,0.873
236.00,0.836
237.00,0.800
238.00,0.764
239.00,0.729
240.00,0.696
241.00,0.669
242.00,0.649
243.00,0.636
244.00,0.626
245.00,0.620
246.00,0.615
247.00,0.614
248.00,0.613
249.00,0.613
250.00,0.615
251.00,0.617
252.00,0.620
253.00,0.624
254.00,0.628
255.00,0.632
256.00,0.637
257.00,0.641
258.00,0.645
259.00,0.649
260.00,0.652
261.00,0.656
262.00,0.659
263.00,0.663
264.00,0.666
265.00,0.670
266.00,0.672
267.00,0.675
268.00,0.677
269.00,0.679
270.00,0.680
271.00,0.681
272.00,0.680
273.00,0.680
274.00,0.679
275.00,0.678
276.00,0.675
277.00,0.672
278.00,0.668
279.00,0.664
280.00,0.659
281.00,0.653
282.00,0.647
283.00,0.639
284.00,0.631
285.00,0.622
286.00,0.612
287.00,0.602
288.00,0.591
289.00,0.579
290.00,0.566
291.00,0.554
292.00,0.542
293.00,0.530
294.00,0.519
295.00,0.508
296.00,0.498
297.00,0.488
298.00,0.477
299.00,0.467
300.00,0.457
301.00,0.448
302.00,0.439
303.00,0.430
304.00,0.422
305.00,0.414
306.00,0.406
307.00,0.398
308.00,0.390
309.00,0.383
310.00,0.376
311.00,0.369
312.00,0.363
313.00,0.357
314.00,0.351
315.00,0.345
316.00,0.340
317.00,0.335
318.00,0.329
319.00,0.324
320.00,0.319
321.00,0.314
322.00,0.309
323.00,0.304
324.00,0.299
325.00,0.294
326.00,0.290
327.00,0.285
328.00,0.280
329.00,0.276
330.00,0.271
331.00,0.267
332.00,0.262
333.00,0.257
334.00,0.253
335.00,0.249
336.00,0.246
337.00,0.242
338.00,0.238
339.00,0.234
340.00,0.231
341.00,0.226
342.00,0.222
343.00,0.219
344.00,0.216
345.00,0.212
346.00,0.209
347.00,0.206
348.00,0.203
349.00,0.199
350.00,0.197
351.00,0.193
352.00,0.191
353.00,0.188
354.00,0.185
355.00,0.183
356.00,0.180
357.00,0.177
358.00,0.175
359.00,0.172
360.00,0.170
361.00,0.168
362.00,0.165
363.00,0.163
364.00,0.161
365.00,0.159
366.00,0.157
367.00,0.155
368.00,0.153
369.00,0.151
370.00,0.149
371.00,0.147
372.00,0.145
373.00,0.144
374.00,0.142
375.00,0.140
376.00,0.138
377.00,0.136
378.00,0.134
379.00,0.132
380.00,0.131
381.00,0.129
382.00,0.128
383.00,0.126
384.00,0.124
385.00,0.123
386.00,0.122
387.00,0.120
388.00,0.119
389.00,0.117
390.00,0.116
391.00,0.115
392.00,0.113
393.00,0.112
394.00,0.111
395.00,0.110
396.00,0.108
397.00,0.107
398.00,0.106
399.00,0.105
400.00,0.104
401.00,0.103
402.00,0.102
403.00,0.101
404.00,0.100
405.00,0.099
406.00,0.098
407.00,0.097
408.00,0.096
409.00,0.095
410.00,0.095
411.00,0.094
412.00,0.093
413.00,0.092
414.00,0.091
415.00,0.091
416.00,0.090
417.00,0.089
418.00,0.089
419.00,0.088
420.00,0.087
421.00,0.087
422.00,0.086
423.00,0.085
424.00,0.085
425.00,0.084
426.00,0.084
427.00,0.083
428.00,0.082
429.00,0.082
430.00,0.081
431.00,0.081
432.00,0.080
433.00,0.079
434.00,0.079
435.00,0.078
436.00,0.078
437.00,0.077
438.00,0.077
439.00,0.076
440.00,0.076
441.00,0.075
442.00,0.075
443.00,0.074
444.00,0.074
445.00,0.074
446.00,0.073
447.00,0.073
448.00,0.072
449.00,0.072
450.00,0.071
451.00,0.071
452.00,0.071
453.00,0.070
454.00,0.070
455.00,0.070
456.00,0.069
457.00,0.069
458.00,0.068
459.00,0.068
460.00,0.068
461.00,0.067
462.00,0.067
463.00,0.067
464.00,0.066
465.00,0.066
466.00,0.066
467.00,0.065
468.00,0.065
469.00,0.065
470.00,0.064
471.00,0.064
472.00,0.064
473.00,0.063
474.00,0.063
475.00,0.063
476.00,0.062
477.00,0.062
478.00,0.062
479.00,0.061
480.00,0.061
481.00,0.061
482.00,0.061
483.00,0.060
484.00,0.060
485.00,0.060
486.00,0.060
487.00,0.059
488.00,0.059
489.00,0.059
490.00,0.059
491.00,0.058
492.00,0.058
493.00,0.058
494.00,0.058
495.00,0.057
496.00,0.057
497.00,0.057
498.00,0.057
499.00,0.057
500.00,0.056
501.00,0.056
502.00,0.056
503.00,0.056
504.00,0.056
505.00,0.055
506.00,0.055
507.00,0.055
508.00,0.055
509.00,0.055
510.00,0.054
511.00,0.054
512.00,0.054
513.00,0.054
514.00,0.054
515.00,0.054
516.00,0.053
517.00,0.053
518.00,0.053
519.00,0.053
520.00,0.053
521.00,0.053
522.00,0.052
523.00,0.052
524.00,0.052
525.00,0.052
526.00,0.052
527.00,0.052
528.00,0.052
529.00,0.051
530.00,0.051
531.00,0.051
532.00,0.051
533.00,0.051
534.00,0.051
535.00,0.050
536.00,0.051
537.00,0.050
538.00,0.050
539.00,0.050
540.00,0.050
541.00,0.050
542.00,0.049
543.00,0.049
544.00,0.049
545.00,0.049
546.00,0.049
547.00,0.049
548.00,0.049
549.00,0.049
550.00,0.049
551.00,0.049
552.00,0.048
553.00,0.048
554.00,0.048
555.00,0.048
556.00,0.048
557.00,0.048
558.00,0.048
559.00,0.048
560.00,0.048
561.00,0.048
562.00,0.047
563.00,0.047
564.00,0.047
565.00,0.047
566.00,0.047
567.00,0.047
568.00,0.047
569.00,0.047
570.00,0.047
571.00,0.047
572.00,0.047
573.00,0.047
574.00,0.047
575.00,0.047
576.00,0.046
577.00,0.046
578.00,0.046
579.00,0.046
580.00,0.046
581.00,0.046
582.00,0.046
583.00,0.046
584.00,0.046
585.00,0.046
586.00,0.046
587.00,0.046
588.00,0.046
589.00,0.046
590.00,0.046
591.00,0.046
592.00,0.046
593.00,0.046
594.00,0.046
595.00,0.046
596.00,0.045
597.00,0.045
598.00,0.045
599.00,0.045
600.00,0.045
601.00,0.045
602.00,0.045
603.00,0.045
604.00,0.045
605.00,0.045
606.00,0.045
607.00,0.045
608.00,0.045
609.00,0.045
610.00,0.045
611.00,0.045
612.00,0.045
613.00,0.045
614.00,0.045
615.00,0.045
616.00,0.045
617.00,0.045
618.00,0.045
619.00,0.045
620.00,0.044
621.00,0.044
622.00,0.044
623.00,0.044
624.00,0.044
625.00,0.044
626.00,0.044
627.00,0.044
628.00,0.044
629.00,0.044
630.00,0.044
631.00,0.044
632.00,0.044
633.00,0.044
634.00,0.044
635.00,0.044
636.00,0.044
637.00,0.044
638.00,0.044
639.00,0.044
640.00,0.044
641.00,0.044
642.00,0.044
643.00,0.044
644.00,0.043
645.00,0.043
646.00,0.043
647.00,0.043
648.00,0.043
649.00,0.043
650.00,0.043
651.00,0.043
652.00,0.043
653.00,0.043
654.00,0.043
655.00,0.043
656.00,0.043
657.00,0.043
658.00,0.043
659.00,0.043
660.00,0.043
661.00,0.043
662.00,0.043
663.00,0.043
664.00,0.043
665.00,0.043
666.00,0.043
667.00,0.043
668.00,0.043
669.00,0.043
670.00,0.043
671.00,0.043
672.00,0.043
673.00,0.043
674.00,0.043
675.00,0.043
676.00,0.043
677.00,0.043
678.00,0.043
679.00,0.043
680.00,0.043
681.00,0.043
682.00,0.043
683.00,0.043
684.00,0.043
685.00,0.043
686.00,0.043
687.00,0.043
688.00,0.043
689.00,0.043
690.00,0.043
691.00,0.043
692.00,0.043
693.00,0.043
694.00,0.043
695.00,0.043
696.00,0.043
697.00,0.043
698.00,0.043
699.00,0.043
700.00,0.043
701.00,0.043
702.00,0.043
703.00,0.043
704.00,0.043
705.00,0.043
706.00,0.043
707.00,0.043
708.00,0.043
709.00,0.043
710.00,0.044
711.00,0.044
712.00,0.044
713.00,0.044
714.00,0.044
715.00,0.044
716.00,0.044
717.00,0.045
718.00,0.045
719.00,0.045
720.00,0.045
721.00,0.045
722.00,0.046
723.00,0.046
724.00,0.046
725.00,0.046
726.00,0.047
727.00,0.047
728.00,0.047
729.00,0.048
730.00,0.048
731.00,0.049
732.00,0.049
733.00,0.050
734.00,0.050
735.00,0.050
736.00,0.051
737.00,0.051
738.00,0.051
739.00,0.051
740.00,0.051
741.00,0.051
742.00,0.051
743.00,0.051
744.00,0.051
745.00,0.051
746.00,0.051
747.00,0.051
748.00,0.051
749.00,0.051
750.00,0.051
751.00,0.051
752.00,0.051
753.00,0.051
754.00,0.051
755.00,0.051
756.00,0.051
757.00,0.051
758.00,0.051
759.00,0.051
760.00,0.051
761.00,0.051
762.00,0.051
763.00,0.051
764.00,0.051
765.00,0.051
766.00,0.051
767.00,0.051
768.00,0.051
769.00,0.051
770.00,0.051
771.00,0.050
772.00,0.050
773.00,0.050
774.00,0.050
775.00,0.050
776.00,0.050
777.00,0.050
778.00,0.050
779.00,0.050
780.00,0.050
781.00,0.050
782.00,0.050
783.00,0.050
784.00,0.049
785.00,0.049
786.00,0.049
787.00,0.049
788.00,0.049
789.00,0.049
790.00,0.049
791.00,0.049
792.00,0.048
793.00,0.048
794.00,0.048
795.00,0.048
796.00,0.048
797.00,0.048
798.00,0.048
799.00,0.048
800.00,0.048
801.00,0.048
802.00,0.047
803.00,0.047
804.00,0.047
805.00,0.047
806.00,0.047
807.00,0.047
808.00,0.047
809.00,0.047
810.00,0.047
811.00,0.047
812.00,0.047
813.00,0.047
814.00,0.047
815.00,0.047
816.00,0.047
817.00,0.047
818.00,0.048
819.00,0.048
820.00,0.048
821.00,0.048
822.00,0.048
823.00,0.048
824.00,0.049
825.00,0.049
826.00,0.050
827.00,0.050
828.00,0.051
829.00,0.051
830.00,0.052
831.00,0.052
832.00,0.053
833.00,0.053
834.00,0.053
835.00,0.054
836.00,0.054
837.00,0.054
838.00,0.054
839.00,0.054
840.00,0.054
841.00,0.055
842.00,0.055
843.00,0.055
844.00,0.055
845.00,0.055
846.00,0.055
847.00,0.055
848.00,0.055
849.00,0.055
850.00,0.056
851.00,0.056
852.00,0.056
853.00,0.056
854.00,0.056
855.00,0.056
856.00,0.056
857.00,0.056
858.00,0.056
859.00,0.056
860.00,0.057
861.00,0.057
862.00,0.057
863.00,0.057
864.00,0.057
865.00,0.057
866.00,0.057
867.00,0.057
868.00,0.058
869.00,0.058
870.00,0.058
871.00,0.058
872.00,0.058
873.00,0.058
874.00,0.059
875.00,0.059
876.00,0.059
877.00,0.059
878.00,0.060
879.00,0.060
880.00,0.060
881.00,0.060
882.00,0.060
883.00,0.061
884.00,0.061
885.00,0.061
886.00,0.061
887.00,0.062
888.00,0.062
889.00,0.062
890.00,0.062
891.00,0.063
892.00,0.063
893.00,0.063
894.00,0.063
895.00,0.064
896.00,0.064
897.00,0.064
898.00,0.064
899.00,0.065
900.00,0.065
