"LTMAPA50x - RawData"
"Wavelength nm.","Abs."
190.00,3.837
191.00,3.954
192.00,3.924
193.00,3.893
194.00,3.984
195.00,3.886
196.00,3.789
197.00,3.877
198.00,3.928
199.00,3.982
200.00,3.988
201.00,3.971
202.00,3.958
203.00,3.979
204.00,3.997
205.00,3.911
206.00,3.834
207.00,3.741
208.00,3.457
209.00,3.253
210.00,3.128
211.00,2.984
212.00,2.819
213.00,2.693
214.00,2.562
215.00,2.442
216.00,2.326
217.00,2.215
218.00,2.101
219.00,1.989
220.00,1.884
221.00,1.790
222.00,1.702
223.00,1.615
224.00,1.527
225.00,1.447
226.00,1.367
227.00,1.287
228.00,1.212
229.00,1.144
230.00,1.080
231.00,1.023
232.00,0.971
233.00,0.924
234.00,0.884
235.00,0.851
236.00,0.822
237.00,0.798
238.00,0.778
239.00,0.762
240.00,0.749
241.00,0.739
242.00,0.733
243.00,0.729
244.00,0.726
245.00,0.726
246.00,0.727
247.00,0.728
248.00,0.731
249.00,0.735
250.00,0.739
251.00,0.744
252.00,0.749
253.00,0.754
254.00,0.759
255.00,0.763
256.00,0.768
257.00,0.771
258.00,0.772
259.00,0.773
260.00,0.772
261.00,0.772
262.00,0.771
263.00,0.771
264.00,0.771
265.00,0.769
266.00,0.767
267.00,0.764
268.00,0.760
269.00,0.755
270.00,0.749
271.00,0.742
272.00,0.735
273.00,0.727
274.00,0.718
275.00,0.708
276.00,0.697
277.00,0.685
278.00,0.672
279.00,0.658
280.00,0.645
281.00,0.631
282.00,0.616
283.00,0.600
284.00,0.582
285.00,0.564
286.00,0.547
287.00,0.530
288.00,0.512
289.00,0.495
290.00,0.477
291.00,0.459
292.00,0.443
293.00,0.429
294.00,0.417
295.00,0.406
296.00,0.397
297.00,0.388
298.00,0.380
299.00,0.372
300.00,0.366
301.00,0.359
302.00,0.354
303.00,0.349
304.00,0.344
305.00,0.339
306.00,0.335
307.00,0.331
308.00,0.327
309.00,0.323
310.00,0.319
311.00,0.316
312.00,0.313
313.00,0.310
314.00,0.306
315.00,0.304
316.00,0.300
317.00,0.297
318.00,0.293
319.00,0.290
320.00,0.287
321.00,0.283
322.00,0.279
323.00,0.275
324.00,0.271
325.00,0.267
326.00,0.262
327.00,0.258
328.00,0.253
329.00,0.249
330.00,0.244
331.00,0.239
332.00,0.234
333.00,0.229
334.00,0.223
335.00,0.219
336.00,0.214
337.00,0.209
338.00,0.204
339.00,0.199
340.00,0.195
341.00,0.188
342.00,0.183
343.00,0.178
344.00,0.174
345.00,0.170
346.00,0.165
347.00,0.161
348.00,0.157
349.00,0.153
350.00,0.149
351.00,0.145
352.00,0.142
353.00,0.138
354.00,0.135
355.00,0.132
356.00,0.129
357.00,0.126
358.00,0.123
359.00,0.120
360.00,0.117
361.00,0.115
362.00,0.112
363.00,0.110
364.00,0.108
365.00,0.106
366.00,0.104
367.00,0.102
368.00,0.100
369.00,0.098
370.00,0.097
371.00,0.095
372.00,0.093
373.00,0.092
374.00,0.090
375.00,0.088
376.00,0.087
377.00,0.085
378.00,0.084
379.00,0.083
380.00,0.081
381.00,0.080
382.00,0.079
383.00,0.077
384.00,0.076
385.00,0.075
386.00,0.074
387.00,0.073
388.00,0.072
389.00,0.071
390.00,0.070
391.00,0.069
392.00,0.068
393.00,0.067
394.00,0.067
395.00,0.066
396.00,0.065
397.00,0.064
398.00,0.064
399.00,0.063
400.00,0.062
401.00,0.062
402.00,0.061
403.00,0.061
404.00,0.060
405.00,0.059
406.00,0.059
407.00,0.058
408.00,0.058
409.00,0.057
410.00,0.057
411.00,0.056
412.00,0.056
413.00,0.056
414.00,0.055
415.00,0.055
416.00,0.054
417.00,0.054
418.00,0.054
419.00,0.054
420.00,0.053
421.00,0.053
422.00,0.053
423.00,0.053
424.00,0.052
425.00,0.052
426.00,0.052
427.00,0.052
428.00,0.051
429.00,0.051
430.00,0.051
431.00,0.051
432.00,0.050
433.00,0.050
434.00,0.050
435.00,0.050
436.00,0.050
437.00,0.049
438.00,0.049
439.00,0.049
440.00,0.049
441.00,0.049
442.00,0.048
443.00,0.048
444.00,0.048
445.00,0.048
446.00,0.048
447.00,0.048
448.00,0.048
449.00,0.047
450.00,0.047
451.00,0.047
452.00,0.047
453.00,0.047
454.00,0.047
455.00,0.047
456.00,0.047
457.00,0.046
458.00,0.046
459.00,0.046
460.00,0.046
461.00,0.046
462.00,0.046
463.00,0.046
464.00,0.045
465.00,0.045
466.00,0.045
467.00,0.045
468.00,0.045
469.00,0.045
470.00,0.045
471.00,0.045
472.00,0.045
473.00,0.045
474.00,0.045
475.00,0.044
476.00,0.044
477.00,0.044
478.00,0.044
479.00,0.044
480.00,0.044
481.00,0.044
482.00,0.043
483.00,0.043
484.00,0.043
485.00,0.043
486.00,0.043
487.00,0.043
488.00,0.043
489.00,0.043
490.00,0.043
491.00,0.043
492.00,0.043
493.00,0.043
494.00,0.043
495.00,0.042
496.00,0.042
497.00,0.042
498.00,0.042
499.00,0.042
500.00,0.042
501.00,0.042
502.00,0.042
503.00,0.042
504.00,0.042
505.00,0.042
506.00,0.042
507.00,0.042
508.00,0.041
509.00,0.041
510.00,0.041
511.00,0.041
512.00,0.041
513.00,0.041
514.00,0.041
515.00,0.041
516.00,0.041
517.00,0.041
518.00,0.041
519.00,0.041
520.00,0.041
521.00,0.041
522.00,0.041
523.00,0.041
524.00,0.041
525.00,0.040
526.00,0.040
527.00,0.040
528.00,0.040
529.00,0.040
530.00,0.040
531.00,0.040
532.00,0.040
533.00,0.040
534.00,0.040
535.00,0.040
536.00,0.040
537.00,0.040
538.00,0.040
539.00,0.040
540.00,0.040
541.00,0.040
542.00,0.040
543.00,0.040
544.00,0.040
545.00,0.040
546.00,0.039
547.00,0.039
548.00,0.039
549.00,0.039
550.00,0.039
551.00,0.039
552.00,0.039
553.00,0.039
554.00,0.039
555.00,0.039
556.00,0.039
557.00,0.039
558.00,0.039
559.00,0.039
560.00,0.039
561.00,0.039
562.00,0.039
563.00,0.039
564.00,0.039
565.00,0.039
566.00,0.039
567.00,0.039
568.00,0.039
569.00,0.039
570.00,0.039
571.00,0.039
572.00,0.039
573.00,0.039
574.00,0.038
575.00,0.039
576.00,0.038
577.00,0.038
578.00,0.038
579.00,0.038
580.00,0.038
581.00,0.038
582.00,0.038
583.00,0.038
584.00,0.038
585.00,0.038
586.00,0.038
587.00,0.038
588.00,0.038
589.00,0.038
590.00,0.038
591.00,0.038
592.00,0.038
593.00,0.038
594.00,0.038
595.00,0.038
596.00,0.038
597.00,0.038
598.00,0.038
599.00,0.039
600.00,0.039
601.00,0.039
602.00,0.039
603.00,0.039
604.00,0.039
605.00,0.039
606.00,0.039
607.00,0.039
608.00,0.039
609.00,0.038
610.00,0.038
611.00,0.038
612.00,0.038
613.00,0.038
614.00,0.038
615.00,0.038
616.00,0.038
617.00,0.038
618.00,0.038
619.00,0.038
620.00,0.038
621.00,0.038
622.00,0.038
623.00,0.038
624.00,0.038
625.00,0.038
626.00,0.038
627.00,0.038
628.00,0.038
629.00,0.038
630.00,0.038
631.00,0.038
632.00,0.038
633.00,0.038
634.00,0.038
635.00,0.038
636.00,0.038
637.00,0.038
638.00,0.038
639.00,0.038
640.00,0.038
641.00,0.038
642.00,0.038
643.00,0.038
644.00,0.038
645.00,0.038
646.00,0.038
647.00,0.038
648.00,0.038
649.00,0.038
650.00,0.038
651.00,0.038
652.00,0.038
653.00,0.038
654.00,0.038
655.00,0.038
656.00,0.038
657.00,0.038
658.00,0.038
659.00,0.038
660.00,0.038
661.00,0.038
662.00,0.038
663.00,0.038
664.00,0.038
665.00,0.038
666.00,0.038
667.00,0.038
668.00,0.038
669.00,0.038
670.00,0.038
671.00,0.038
672.00,0.038
673.00,0.038
674.00,0.038
675.00,0.038
676.00,0.038
677.00,0.038
678.00,0.038
679.00,0.038
680.00,0.038
681.00,0.038
682.00,0.038
683.00,0.038
684.00,0.038
685.00,0.038
686.00,0.038
687.00,0.038
688.00,0.038
689.00,0.038
690.00,0.038
691.00,0.038
692.00,0.038
693.00,0.038
694.00,0.038
695.00,0.038
696.00,0.038
697.00,0.038
698.00,0.038
699.00,0.039
700.00,0.039
701.00,0.039
702.00,0.039
703.00,0.039
704.00,0.039
705.00,0.039
706.00,0.039
707.00,0.039
708.00,0.039
709.00,0.039
710.00,0.039
711.00,0.039
712.00,0.039
713.00,0.040
714.00,0.040
715.00,0.040
716.00,0.040
717.00,0.040
718.00,0.040
719.00,0.041
720.00,0.041
721.00,0.041
722.00,0.041
723.00,0.042
724.00,0.042
725.00,0.042
726.00,0.042
727.00,0.043
728.00,0.043
729.00,0.044
730.00,0.044
731.00,0.045
732.00,0.045
733.00,0.046
734.00,0.046
735.00,0.046
736.00,0.047
737.00,0.047
738.00,0.047
739.00,0.047
740.00,0.047
741.00,0.047
742.00,0.047
743.00,0.047
744.00,0.048
745.00,0.048
746.00,0.047
747.00,0.047
748.00,0.048
749.00,0.048
750.00,0.048
751.00,0.048
752.00,0.048
753.00,0.048
754.00,0.048
755.00,0.048
756.00,0.048
757.00,0.048
758.00,0.048
759.00,0.048
760.00,0.048
761.00,0.048
762.00,0.048
763.00,0.048
764.00,0.047
765.00,0.047
766.00,0.047
767.00,0.047
768.00,0.047
769.00,0.047
770.00,0.047
771.00,0.047
772.00,0.047
773.00,0.047
774.00,0.047
775.00,0.047
776.00,0.047
777.00,0.047
778.00,0.047
779.00,0.047
780.00,0.046
781.00,0.046
782.00,0.046
783.00,0.046
784.00,0.046
785.00,0.046
786.00,0.046
787.00,0.046
788.00,0.046
789.00,0.046
790.00,0.045
791.00,0.045
792.00,0.045
793.00,0.045
794.00,0.045
795.00,0.045
796.00,0.045
797.00,0.045
798.00,0.045
799.00,0.045
800.00,0.044
801.00,0.044
802.00,0.044
803.00,0.044
804.00,0.044
805.00,0.044
806.00,0.044
807.00,0.044
808.00,0.044
809.00,0.044
810.00,0.044
811.00,0.044
812.00,0.044
813.00,0.044
814.00,0.044
815.00,0.044
816.00,0.044
817.00,0.044
818.00,0.044
819.00,0.044
820.00,0.045
821.00,0.045
822.00,0.045
823.00,0.045
824.00,0.046
825.00,0.046
826.00,0.046
827.00,0.047
828.00,0.047
829.00,0.048
830.00,0.048
831.00,0.049
832.00,0.049
833.00,0.050
834.00,0.050
835.00,0.050
836.00,0.050
837.00,0.051
838.00,0.051
839.00,0.051
840.00,0.051
841.00,0.051
842.00,0.051
843.00,0.051
844.00,0.052
845.00,0.052
846.00,0.052
847.00,0.052
848.00,0.052
849.00,0.052
850.00,0.052
851.00,0.052
852.00,0.052
853.00,0.053
854.00,0.053
855.00,0.053
856.00,0.053
857.00,0.053
858.00,0.053
859.00,0.053
860.00,0.053
861.00,0.053
862.00,0.053
863.00,0.054
864.00,0.054
865.00,0.054
866.00,0.054
867.00,0.054
868.00,0.054
869.00,0.054
870.00,0.055
871.00,0.055
872.00,0.055
873.00,0.055
874.00,0.055
875.00,0.055
876.00,0.056
877.00,0.056
878.00,0.056
879.00,0.056
880.00,0.057
881.00,0.057
882.00,0.057
883.00,0.057
884.00,0.057
885.00,0.058
886.00,0.058
887.00,0.058
888.00,0.058
889.00,0.059
890.00,0.059
891.00,0.059
892.00,0.059
893.00,0.060
894.00,0.060
895.00,0.060
896.00,0.060
897.00,0.061
898.00,0.061
899.00,0.061
900.00,0.061
