"LTMGrandeCuvee100x - RawData"
"Wavelength nm.","Abs."
190.00,3.409
191.00,3.420
192.00,3.945
193.00,3.634
194.00,3.694
195.00,3.561
196.00,3.617
197.00,3.550
198.00,3.598
199.00,3.862
200.00,3.972
201.00,3.760
202.00,3.716
203.00,3.682
204.00,3.508
205.00,3.475
206.00,3.394
207.00,3.330
208.00,3.219
209.00,3.121
210.00,2.992
211.00,2.868
212.00,2.772
213.00,2.677
214.00,2.574
215.00,2.481
216.00,2.383
217.00,2.300
218.00,2.209
219.00,2.121
220.00,2.036
221.00,1.959
222.00,1.886
223.00,1.812
224.00,1.740
225.00,1.670
226.00,1.601
227.00,1.530
228.00,1.461
229.00,1.397
230.00,1.336
231.00,1.279
232.00,1.227
233.00,1.180
234.00,1.138
235.00,1.101
236.00,1.070
237.00,1.043
238.00,1.019
239.00,0.999
240.00,0.982
241.00,0.969
242.00,0.959
243.00,0.953
244.00,0.948
245.00,0.945
246.00,0.944
247.00,0.944
248.00,0.944
249.00,0.946
250.00,0.948
251.00,0.951
252.00,0.955
253.00,0.958
254.00,0.961
255.00,0.965
256.00,0.968
257.00,0.971
258.00,0.973
259.00,0.974
260.00,0.974
261.00,0.975
262.00,0.975
263.00,0.976
264.00,0.976
265.00,0.975
266.00,0.974
267.00,0.973
268.00,0.970
269.00,0.967
270.00,0.964
271.00,0.961
272.00,0.956
273.00,0.951
274.00,0.946
275.00,0.939
276.00,0.932
277.00,0.925
278.00,0.917
279.00,0.908
280.00,0.899
281.00,0.889
282.00,0.879
283.00,0.868
284.00,0.855
285.00,0.842
286.00,0.830
287.00,0.817
288.00,0.803
289.00,0.790
290.00,0.776
291.00,0.761
292.00,0.748
293.00,0.734
294.00,0.722
295.00,0.710
296.00,0.698
297.00,0.687
298.00,0.676
299.00,0.664
300.00,0.654
301.00,0.643
302.00,0.633
303.00,0.622
304.00,0.612
305.00,0.602
306.00,0.593
307.00,0.583
308.00,0.574
309.00,0.564
310.00,0.556
311.00,0.546
312.00,0.539
313.00,0.531
314.00,0.524
315.00,0.516
316.00,0.508
317.00,0.501
318.00,0.494
319.00,0.487
320.00,0.481
321.00,0.474
322.00,0.467
323.00,0.460
324.00,0.454
325.00,0.447
326.00,0.441
327.00,0.435
328.00,0.428
329.00,0.422
330.00,0.416
331.00,0.410
332.00,0.404
333.00,0.398
334.00,0.392
335.00,0.387
336.00,0.382
337.00,0.377
338.00,0.371
339.00,0.366
340.00,0.361
341.00,0.355
342.00,0.350
343.00,0.345
344.00,0.340
345.00,0.335
346.00,0.331
347.00,0.327
348.00,0.322
349.00,0.318
350.00,0.314
351.00,0.310
352.00,0.305
353.00,0.302
354.00,0.298
355.00,0.294
356.00,0.290
357.00,0.286
358.00,0.283
359.00,0.279
360.00,0.275
361.00,0.272
362.00,0.269
363.00,0.266
364.00,0.263
365.00,0.259
366.00,0.256
367.00,0.253
368.00,0.250
369.00,0.248
370.00,0.245
371.00,0.242
372.00,0.239
373.00,0.236
374.00,0.234
375.00,0.231
376.00,0.229
377.00,0.226
378.00,0.223
379.00,0.221
380.00,0.218
381.00,0.216
382.00,0.214
383.00,0.211
384.00,0.209
385.00,0.207
386.00,0.205
387.00,0.202
388.00,0.200
389.00,0.198
390.00,0.196
391.00,0.194
392.00,0.192
393.00,0.190
394.00,0.188
395.00,0.186
396.00,0.185
397.00,0.183
398.00,0.181
399.00,0.179
400.00,0.178
401.00,0.176
402.00,0.174
403.00,0.173
404.00,0.171
405.00,0.169
406.00,0.168
407.00,0.166
408.00,0.165
409.00,0.163
410.00,0.162
411.00,0.160
412.00,0.159
413.00,0.157
414.00,0.156
415.00,0.154
416.00,0.153
417.00,0.152
418.00,0.151
419.00,0.149
420.00,0.148
421.00,0.147
422.00,0.146
423.00,0.144
424.00,0.143
425.00,0.142
426.00,0.141
427.00,0.139
428.00,0.138
429.00,0.137
430.00,0.136
431.00,0.135
432.00,0.133
433.00,0.132
434.00,0.131
435.00,0.130
436.00,0.129
437.00,0.128
438.00,0.127
439.00,0.126
440.00,0.125
441.00,0.124
442.00,0.123
443.00,0.122
444.00,0.121
445.00,0.120
446.00,0.119
447.00,0.118
448.00,0.118
449.00,0.117
450.00,0.116
451.00,0.115
452.00,0.114
453.00,0.113
454.00,0.112
455.00,0.112
456.00,0.111
457.00,0.110
458.00,0.109
459.00,0.108
460.00,0.107
461.00,0.107
462.00,0.106
463.00,0.105
464.00,0.104
465.00,0.104
466.00,0.103
467.00,0.102
468.00,0.102
469.00,0.101
470.00,0.100
471.00,0.099
472.00,0.099
473.00,0.098
474.00,0.097
475.00,0.096
476.00,0.096
477.00,0.095
478.00,0.094
479.00,0.094
480.00,0.093
481.00,0.092
482.00,0.092
483.00,0.091
484.00,0.090
485.00,0.090
486.00,0.089
487.00,0.089
488.00,0.088
489.00,0.087
490.00,0.087
491.00,0.086
492.00,0.086
493.00,0.085
494.00,0.085
495.00,0.084
496.00,0.084
497.00,0.083
498.00,0.083
499.00,0.082
500.00,0.082
501.00,0.081
502.00,0.081
503.00,0.080
504.00,0.079
505.00,0.079
506.00,0.079
507.00,0.078
508.00,0.078
509.00,0.077
510.00,0.077
511.00,0.076
512.00,0.076
513.00,0.075
514.00,0.075
515.00,0.074
516.00,0.074
517.00,0.074
518.00,0.073
519.00,0.073
520.00,0.072
521.00,0.072
522.00,0.072
523.00,0.071
524.00,0.071
525.00,0.070
526.00,0.070
527.00,0.070
528.00,0.069
529.00,0.069
530.00,0.069
531.00,0.068
532.00,0.068
533.00,0.067
534.00,0.067
535.00,0.067
536.00,0.067
537.00,0.066
538.00,0.066
539.00,0.065
540.00,0.065
541.00,0.065
542.00,0.064
543.00,0.064
544.00,0.064
545.00,0.064
546.00,0.063
547.00,0.063
548.00,0.063
549.00,0.062
550.00,0.062
551.00,0.062
552.00,0.061
553.00,0.061
554.00,0.061
555.00,0.061
556.00,0.060
557.00,0.060
558.00,0.060
559.00,0.060
560.00,0.059
561.00,0.059
562.00,0.059
563.00,0.059
564.00,0.058
565.00,0.058
566.00,0.058
567.00,0.058
568.00,0.058
569.00,0.057
570.00,0.057
571.00,0.057
572.00,0.057
573.00,0.056
574.00,0.056
575.00,0.056
576.00,0.056
577.00,0.055
578.00,0.055
579.00,0.055
580.00,0.055
581.00,0.055
582.00,0.055
583.00,0.054
584.00,0.054
585.00,0.054
586.00,0.054
587.00,0.054
588.00,0.054
589.00,0.053
590.00,0.053
591.00,0.053
592.00,0.053
593.00,0.053
594.00,0.053
595.00,0.052
596.00,0.052
597.00,0.052
598.00,0.052
599.00,0.052
600.00,0.052
601.00,0.052
602.00,0.052
603.00,0.052
604.00,0.051
605.00,0.051
606.00,0.051
607.00,0.051
608.00,0.051
609.00,0.051
610.00,0.050
611.00,0.050
612.00,0.050
613.00,0.050
614.00,0.050
615.00,0.050
616.00,0.050
617.00,0.049
618.00,0.049
619.00,0.049
620.00,0.049
621.00,0.049
622.00,0.049
623.00,0.049
624.00,0.049
625.00,0.049
626.00,0.048
627.00,0.048
628.00,0.048
629.00,0.048
630.00,0.048
631.00,0.048
632.00,0.048
633.00,0.048
634.00,0.047
635.00,0.047
636.00,0.047
637.00,0.047
638.00,0.047
639.00,0.047
640.00,0.047
641.00,0.047
642.00,0.047
643.00,0.046
644.00,0.046
645.00,0.046
646.00,0.046
647.00,0.046
648.00,0.046
649.00,0.046
650.00,0.046
651.00,0.046
652.00,0.046
653.00,0.046
654.00,0.046
655.00,0.045
656.00,0.045
657.00,0.045
658.00,0.045
659.00,0.045
660.00,0.045
661.00,0.045
662.00,0.045
663.00,0.045
664.00,0.045
665.00,0.045
666.00,0.045
667.00,0.045
668.00,0.044
669.00,0.044
670.00,0.044
671.00,0.044
672.00,0.044
673.00,0.044
674.00,0.044
675.00,0.044
676.00,0.044
677.00,0.044
678.00,0.044
679.00,0.044
680.00,0.044
681.00,0.044
682.00,0.044
683.00,0.043
684.00,0.043
685.00,0.043
686.00,0.043
687.00,0.043
688.00,0.043
689.00,0.043
690.00,0.043
691.00,0.043
692.00,0.043
693.00,0.043
694.00,0.043
695.00,0.043
696.00,0.043
697.00,0.043
698.00,0.043
699.00,0.043
700.00,0.043
701.00,0.043
702.00,0.043
703.00,0.043
704.00,0.043
705.00,0.043
706.00,0.043
707.00,0.043
708.00,0.043
709.00,0.043
710.00,0.043
711.00,0.043
712.00,0.043
713.00,0.044
714.00,0.044
715.00,0.044
716.00,0.044
717.00,0.044
718.00,0.044
719.00,0.044
720.00,0.045
721.00,0.045
722.00,0.045
723.00,0.045
724.00,0.045
725.00,0.046
726.00,0.046
727.00,0.046
728.00,0.046
729.00,0.047
730.00,0.047
731.00,0.048
732.00,0.048
733.00,0.049
734.00,0.049
735.00,0.049
736.00,0.050
737.00,0.050
738.00,0.050
739.00,0.050
740.00,0.050
741.00,0.050
742.00,0.050
743.00,0.050
744.00,0.050
745.00,0.050
746.00,0.050
747.00,0.050
748.00,0.050
749.00,0.050
750.00,0.050
751.00,0.050
752.00,0.050
753.00,0.050
754.00,0.050
755.00,0.050
756.00,0.050
757.00,0.049
758.00,0.049
759.00,0.050
760.00,0.050
761.00,0.049
762.00,0.049
763.00,0.049
764.00,0.049
765.00,0.049
766.00,0.049
767.00,0.049
768.00,0.049
769.00,0.049
770.00,0.049
771.00,0.049
772.00,0.049
773.00,0.049
774.00,0.048
775.00,0.048
776.00,0.048
777.00,0.048
778.00,0.048
779.00,0.048
780.00,0.048
781.00,0.048
782.00,0.048
783.00,0.048
784.00,0.047
785.00,0.047
786.00,0.047
787.00,0.047
788.00,0.047
789.00,0.047
790.00,0.047
791.00,0.047
792.00,0.046
793.00,0.046
794.00,0.046
795.00,0.046
796.00,0.046
797.00,0.046
798.00,0.046
799.00,0.046
800.00,0.046
801.00,0.045
802.00,0.045
803.00,0.045
804.00,0.045
805.00,0.045
806.00,0.045
807.00,0.045
808.00,0.045
809.00,0.045
810.00,0.045
811.00,0.045
812.00,0.045
813.00,0.045
814.00,0.045
815.00,0.045
816.00,0.045
817.00,0.045
818.00,0.045
819.00,0.045
820.00,0.046
821.00,0.046
822.00,0.046
823.00,0.046
824.00,0.046
825.00,0.047
826.00,0.047
827.00,0.048
828.00,0.048
829.00,0.049
830.00,0.049
831.00,0.050
832.00,0.050
833.00,0.051
834.00,0.051
835.00,0.051
836.00,0.051
837.00,0.051
838.00,0.052
839.00,0.052
840.00,0.052
841.00,0.052
842.00,0.052
843.00,0.052
844.00,0.052
845.00,0.052
846.00,0.052
847.00,0.052
848.00,0.053
849.00,0.053
850.00,0.053
851.00,0.053
852.00,0.053
853.00,0.053
854.00,0.053
855.00,0.053
856.00,0.053
857.00,0.053
858.00,0.054
859.00,0.054
860.00,0.054
861.00,0.054
862.00,0.054
863.00,0.054
864.00,0.054
865.00,0.054
866.00,0.054
867.00,0.054
868.00,0.054
869.00,0.055
870.00,0.055
871.00,0.055
872.00,0.055
873.00,0.055
874.00,0.055
875.00,0.056
876.00,0.056
877.00,0.056
878.00,0.056
879.00,0.057
880.00,0.057
881.00,0.057
882.00,0.057
883.00,0.057
884.00,0.058
885.00,0.058
886.00,0.058
887.00,0.058
888.00,0.059
889.00,0.059
890.00,0.059
891.00,0.059
892.00,0.059
893.00,0.060
894.00,0.060
895.00,0.060
896.00,0.060
897.00,0.061
898.00,0.061
899.00,0.061
900.00,0.061
