"LTMMaibock50x - RawData"
"Wavelength nm.","Abs."
190.00,3.185
191.00,3.597
192.00,3.581
193.00,3.659
194.00,3.581
195.00,3.765
196.00,3.852
197.00,3.906
198.00,3.707
199.00,3.801
200.00,3.891
201.00,3.889
202.00,3.804
203.00,3.937
204.00,3.821
205.00,3.895
206.00,3.843
207.00,3.844
208.00,3.794
209.00,3.761
210.00,3.738
211.00,3.835
212.00,3.655
213.00,3.574
214.00,3.442
215.00,3.321
216.00,3.223
217.00,3.049
218.00,2.937
219.00,2.810
220.00,2.645
221.00,2.514
222.00,2.391
223.00,2.261
224.00,2.137
225.00,2.019
226.00,1.900
227.00,1.774
228.00,1.654
229.00,1.546
230.00,1.445
231.00,1.356
232.00,1.278
233.00,1.210
234.00,1.153
235.00,1.105
236.00,1.065
237.00,1.033
238.00,1.008
239.00,0.990
240.00,0.976
241.00,0.967
242.00,0.962
243.00,0.960
244.00,0.960
245.00,0.962
246.00,0.966
247.00,0.971
248.00,0.977
249.00,0.983
250.00,0.991
251.00,0.998
252.00,1.006
253.00,1.014
254.00,1.021
255.00,1.028
256.00,1.034
257.00,1.040
258.00,1.043
259.00,1.043
260.00,1.043
261.00,1.043
262.00,1.043
263.00,1.043
264.00,1.042
265.00,1.039
266.00,1.035
267.00,1.030
268.00,1.022
269.00,1.013
270.00,1.003
271.00,0.991
272.00,0.978
273.00,0.964
274.00,0.949
275.00,0.931
276.00,0.913
277.00,0.892
278.00,0.871
279.00,0.848
280.00,0.826
281.00,0.803
282.00,0.780
283.00,0.753
284.00,0.727
285.00,0.701
286.00,0.677
287.00,0.654
288.00,0.631
289.00,0.607
290.00,0.583
291.00,0.559
292.00,0.538
293.00,0.521
294.00,0.506
295.00,0.493
296.00,0.482
297.00,0.472
298.00,0.463
299.00,0.455
300.00,0.448
301.00,0.442
302.00,0.436
303.00,0.431
304.00,0.427
305.00,0.422
306.00,0.418
307.00,0.414
308.00,0.410
309.00,0.406
310.00,0.403
311.00,0.399
312.00,0.396
313.00,0.392
314.00,0.389
315.00,0.385
316.00,0.381
317.00,0.377
318.00,0.373
319.00,0.369
320.00,0.364
321.00,0.360
322.00,0.355
323.00,0.350
324.00,0.344
325.00,0.338
326.00,0.332
327.00,0.326
328.00,0.320
329.00,0.313
330.00,0.306
331.00,0.299
332.00,0.292
333.00,0.284
334.00,0.277
335.00,0.270
336.00,0.263
337.00,0.256
338.00,0.249
339.00,0.242
340.00,0.236
341.00,0.227
342.00,0.220
343.00,0.214
344.00,0.208
345.00,0.202
346.00,0.196
347.00,0.190
348.00,0.184
349.00,0.179
350.00,0.173
351.00,0.169
352.00,0.164
353.00,0.159
354.00,0.154
355.00,0.150
356.00,0.146
357.00,0.142
358.00,0.139
359.00,0.135
360.00,0.131
361.00,0.128
362.00,0.125
363.00,0.122
364.00,0.120
365.00,0.117
366.00,0.115
367.00,0.112
368.00,0.110
369.00,0.108
370.00,0.105
371.00,0.104
372.00,0.102
373.00,0.100
374.00,0.098
375.00,0.096
376.00,0.094
377.00,0.093
378.00,0.091
379.00,0.090
380.00,0.088
381.00,0.087
382.00,0.085
383.00,0.084
384.00,0.083
385.00,0.081
386.00,0.080
387.00,0.079
388.00,0.078
389.00,0.077
390.00,0.076
391.00,0.075
392.00,0.074
393.00,0.073
394.00,0.072
395.00,0.071
396.00,0.070
397.00,0.069
398.00,0.069
399.00,0.068
400.00,0.067
401.00,0.066
402.00,0.066
403.00,0.065
404.00,0.065
405.00,0.064
406.00,0.063
407.00,0.063
408.00,0.062
409.00,0.062
410.00,0.061
411.00,0.061
412.00,0.060
413.00,0.060
414.00,0.059
415.00,0.059
416.00,0.059
417.00,0.059
418.00,0.058
419.00,0.058
420.00,0.057
421.00,0.057
422.00,0.057
423.00,0.057
424.00,0.056
425.00,0.056
426.00,0.056
427.00,0.055
428.00,0.055
429.00,0.055
430.00,0.054
431.00,0.054
432.00,0.054
433.00,0.054
434.00,0.054
435.00,0.053
436.00,0.053
437.00,0.053
438.00,0.053
439.00,0.052
440.00,0.052
441.00,0.052
442.00,0.052
443.00,0.052
444.00,0.052
445.00,0.051
446.00,0.051
447.00,0.051
448.00,0.051
449.00,0.051
450.00,0.050
451.00,0.050
452.00,0.050
453.00,0.050
454.00,0.050
455.00,0.050
456.00,0.050
457.00,0.049
458.00,0.049
459.00,0.049
460.00,0.049
461.00,0.049
462.00,0.049
463.00,0.048
464.00,0.048
465.00,0.048
466.00,0.048
467.00,0.048
468.00,0.048
469.00,0.048
470.00,0.048
471.00,0.047
472.00,0.047
473.00,0.047
474.00,0.047
475.00,0.047
476.00,0.047
477.00,0.047
478.00,0.047
479.00,0.046
480.00,0.046
481.00,0.046
482.00,0.046
483.00,0.046
484.00,0.046
485.00,0.046
486.00,0.046
487.00,0.046
488.00,0.045
489.00,0.045
490.00,0.045
491.00,0.045
492.00,0.045
493.00,0.045
494.00,0.045
495.00,0.045
496.00,0.045
497.00,0.045
498.00,0.044
499.00,0.044
500.00,0.044
501.00,0.044
502.00,0.044
503.00,0.044
504.00,0.044
505.00,0.044
506.00,0.044
507.00,0.044
508.00,0.044
509.00,0.044
510.00,0.044
511.00,0.043
512.00,0.043
513.00,0.043
514.00,0.043
515.00,0.043
516.00,0.043
517.00,0.043
518.00,0.043
519.00,0.043
520.00,0.043
521.00,0.043
522.00,0.043
523.00,0.043
524.00,0.043
525.00,0.043
526.00,0.042
527.00,0.042
528.00,0.042
529.00,0.042
530.00,0.042
531.00,0.042
532.00,0.042
533.00,0.042
534.00,0.042
535.00,0.042
536.00,0.042
537.00,0.042
538.00,0.042
539.00,0.042
540.00,0.042
541.00,0.042
542.00,0.042
543.00,0.041
544.00,0.041
545.00,0.042
546.00,0.041
547.00,0.041
548.00,0.041
549.00,0.041
550.00,0.041
551.00,0.041
552.00,0.041
553.00,0.041
554.00,0.041
555.00,0.041
556.00,0.041
557.00,0.041
558.00,0.041
559.00,0.041
560.00,0.041
561.00,0.041
562.00,0.041
563.00,0.041
564.00,0.041
565.00,0.041
566.00,0.041
567.00,0.041
568.00,0.041
569.00,0.041
570.00,0.041
571.00,0.040
572.00,0.040
573.00,0.040
574.00,0.040
575.00,0.040
576.00,0.040
577.00,0.040
578.00,0.040
579.00,0.040
580.00,0.040
581.00,0.040
582.00,0.040
583.00,0.040
584.00,0.040
585.00,0.040
586.00,0.040
587.00,0.040
588.00,0.040
589.00,0.040
590.00,0.040
591.00,0.040
592.00,0.040
593.00,0.040
594.00,0.040
595.00,0.040
596.00,0.040
597.00,0.040
598.00,0.040
599.00,0.040
600.00,0.040
601.00,0.040
602.00,0.040
603.00,0.040
604.00,0.040
605.00,0.040
606.00,0.040
607.00,0.040
608.00,0.040
609.00,0.040
610.00,0.040
611.00,0.040
612.00,0.040
613.00,0.040
614.00,0.040
615.00,0.040
616.00,0.040
617.00,0.040
618.00,0.040
619.00,0.040
620.00,0.040
621.00,0.040
622.00,0.040
623.00,0.040
624.00,0.040
625.00,0.040
626.00,0.040
627.00,0.040
628.00,0.040
629.00,0.040
630.00,0.040
631.00,0.040
632.00,0.040
633.00,0.040
634.00,0.040
635.00,0.040
636.00,0.040
637.00,0.040
638.00,0.040
639.00,0.040
640.00,0.040
641.00,0.040
642.00,0.040
643.00,0.040
644.00,0.040
645.00,0.039
646.00,0.039
647.00,0.039
648.00,0.039
649.00,0.040
650.00,0.040
651.00,0.040
652.00,0.040
653.00,0.040
654.00,0.040
655.00,0.039
656.00,0.040
657.00,0.040
658.00,0.039
659.00,0.040
660.00,0.040
661.00,0.040
662.00,0.040
663.00,0.040
664.00,0.040
665.00,0.040
666.00,0.040
667.00,0.040
668.00,0.039
669.00,0.039
670.00,0.040
671.00,0.039
672.00,0.040
673.00,0.040
674.00,0.039
675.00,0.039
676.00,0.039
677.00,0.039
678.00,0.039
679.00,0.039
680.00,0.039
681.00,0.039
682.00,0.039
683.00,0.039
684.00,0.039
685.00,0.039
686.00,0.039
687.00,0.039
688.00,0.039
689.00,0.039
690.00,0.039
691.00,0.039
692.00,0.039
693.00,0.039
694.00,0.039
695.00,0.039
696.00,0.039
697.00,0.040
698.00,0.039
699.00,0.040
700.00,0.040
701.00,0.040
702.00,0.040
703.00,0.040
704.00,0.040
705.00,0.040
706.00,0.040
707.00,0.040
708.00,0.040
709.00,0.040
710.00,0.040
711.00,0.040
712.00,0.041
713.00,0.041
714.00,0.041
715.00,0.041
716.00,0.041
717.00,0.042
718.00,0.042
719.00,0.042
720.00,0.042
721.00,0.042
722.00,0.043
723.00,0.043
724.00,0.043
725.00,0.043
726.00,0.044
727.00,0.044
728.00,0.044
729.00,0.045
730.00,0.045
731.00,0.046
732.00,0.046
733.00,0.047
734.00,0.047
735.00,0.047
736.00,0.048
737.00,0.048
738.00,0.048
739.00,0.048
740.00,0.048
741.00,0.048
742.00,0.048
743.00,0.048
744.00,0.048
745.00,0.048
746.00,0.048
747.00,0.048
748.00,0.048
749.00,0.048
750.00,0.048
751.00,0.048
752.00,0.048
753.00,0.048
754.00,0.048
755.00,0.048
756.00,0.048
757.00,0.048
758.00,0.048
759.00,0.048
760.00,0.049
761.00,0.048
762.00,0.048
763.00,0.048
764.00,0.048
765.00,0.048
766.00,0.048
767.00,0.048
768.00,0.048
769.00,0.048
770.00,0.048
771.00,0.048
772.00,0.048
773.00,0.048
774.00,0.048
775.00,0.048
776.00,0.047
777.00,0.047
778.00,0.047
779.00,0.047
780.00,0.047
781.00,0.047
782.00,0.047
783.00,0.047
784.00,0.047
785.00,0.047
786.00,0.047
787.00,0.046
788.00,0.046
789.00,0.046
790.00,0.046
791.00,0.046
792.00,0.046
793.00,0.046
794.00,0.046
795.00,0.046
796.00,0.046
797.00,0.045
798.00,0.045
799.00,0.045
800.00,0.045
801.00,0.045
802.00,0.045
803.00,0.045
804.00,0.045
805.00,0.045
806.00,0.045
807.00,0.045
808.00,0.045
809.00,0.045
810.00,0.045
811.00,0.045
812.00,0.045
813.00,0.045
814.00,0.045
815.00,0.045
816.00,0.045
817.00,0.045
818.00,0.045
819.00,0.045
820.00,0.046
821.00,0.046
822.00,0.046
823.00,0.046
824.00,0.047
825.00,0.047
826.00,0.047
827.00,0.048
828.00,0.048
829.00,0.049
830.00,0.049
831.00,0.050
832.00,0.050
833.00,0.051
834.00,0.051
835.00,0.051
836.00,0.052
837.00,0.052
838.00,0.052
839.00,0.052
840.00,0.052
841.00,0.052
842.00,0.052
843.00,0.052
844.00,0.053
845.00,0.053
846.00,0.053
847.00,0.053
848.00,0.053
849.00,0.053
850.00,0.053
851.00,0.053
852.00,0.054
853.00,0.054
854.00,0.054
855.00,0.054
856.00,0.054
857.00,0.054
858.00,0.054
859.00,0.054
860.00,0.054
861.00,0.054
862.00,0.054
863.00,0.055
864.00,0.055
865.00,0.055
866.00,0.055
867.00,0.055
868.00,0.055
869.00,0.055
870.00,0.055
871.00,0.055
872.00,0.056
873.00,0.056
874.00,0.056
875.00,0.056
876.00,0.056
877.00,0.057
878.00,0.057
879.00,0.057
880.00,0.057
881.00,0.057
882.00,0.058
883.00,0.058
884.00,0.058
885.00,0.058
886.00,0.059
887.00,0.059
888.00,0.059
889.00,0.059
890.00,0.060
891.00,0.060
892.00,0.060
893.00,0.060
894.00,0.060
895.00,0.061
896.00,0.061
897.00,0.061
898.00,0.061
899.00,0.062
900.00,0.062
