"LTMPorterBaltique100x - RawData"
"Wavelength nm.","Abs."
190.00,3.775
191.00,3.431
192.00,3.533
193.00,3.591
194.00,3.680
195.00,3.773
196.00,3.893
197.00,3.966
198.00,3.718
199.00,3.701
200.00,3.570
201.00,3.504
202.00,3.321
203.00,3.238
204.00,3.117
205.00,2.942
206.00,2.803
207.00,2.696
208.00,2.593
209.00,2.485
210.00,2.392
211.00,2.304
212.00,2.222
213.00,2.138
214.00,2.057
215.00,1.982
216.00,1.911
217.00,1.842
218.00,1.773
219.00,1.706
220.00,1.640
221.00,1.580
222.00,1.522
223.00,1.466
224.00,1.408
225.00,1.352
226.00,1.298
227.00,1.242
228.00,1.189
229.00,1.138
230.00,1.090
231.00,1.047
232.00,1.006
233.00,0.968
234.00,0.934
235.00,0.905
236.00,0.879
237.00,0.857
238.00,0.838
239.00,0.821
240.00,0.808
241.00,0.797
242.00,0.789
243.00,0.784
244.00,0.781
245.00,0.779
246.00,0.779
247.00,0.780
248.00,0.781
249.00,0.784
250.00,0.786
251.00,0.790
252.00,0.793
253.00,0.797
254.00,0.801
255.00,0.805
256.00,0.808
257.00,0.812
258.00,0.814
259.00,0.816
260.00,0.817
261.00,0.818
262.00,0.820
263.00,0.821
264.00,0.822
265.00,0.822
266.00,0.823
267.00,0.822
268.00,0.822
269.00,0.821
270.00,0.819
271.00,0.817
272.00,0.814
273.00,0.811
274.00,0.808
275.00,0.804
276.00,0.800
277.00,0.795
278.00,0.790
279.00,0.783
280.00,0.777
281.00,0.770
282.00,0.763
283.00,0.755
284.00,0.747
285.00,0.737
286.00,0.728
287.00,0.719
288.00,0.709
289.00,0.698
290.00,0.687
291.00,0.676
292.00,0.666
293.00,0.655
294.00,0.646
295.00,0.636
296.00,0.627
297.00,0.618
298.00,0.609
299.00,0.600
300.00,0.591
301.00,0.582
302.00,0.573
303.00,0.563
304.00,0.555
305.00,0.546
306.00,0.537
307.00,0.528
308.00,0.520
309.00,0.511
310.00,0.502
311.00,0.494
312.00,0.486
313.00,0.479
314.00,0.471
315.00,0.463
316.00,0.456
317.00,0.449
318.00,0.442
319.00,0.435
320.00,0.428
321.00,0.421
322.00,0.414
323.00,0.407
324.00,0.401
325.00,0.394
326.00,0.388
327.00,0.382
328.00,0.375
329.00,0.369
330.00,0.363
331.00,0.357
332.00,0.351
333.00,0.346
334.00,0.340
335.00,0.335
336.00,0.330
337.00,0.325
338.00,0.320
339.00,0.315
340.00,0.311
341.00,0.305
342.00,0.300
343.00,0.295
344.00,0.291
345.00,0.287
346.00,0.283
347.00,0.279
348.00,0.275
349.00,0.271
350.00,0.268
351.00,0.264
352.00,0.261
353.00,0.257
354.00,0.254
355.00,0.250
356.00,0.247
357.00,0.244
358.00,0.241
359.00,0.238
360.00,0.235
361.00,0.232
362.00,0.229
363.00,0.226
364.00,0.224
365.00,0.221
366.00,0.218
367.00,0.216
368.00,0.213
369.00,0.211
370.00,0.209
371.00,0.206
372.00,0.204
373.00,0.202
374.00,0.199
375.00,0.197
376.00,0.195
377.00,0.193
378.00,0.190
379.00,0.188
380.00,0.186
381.00,0.184
382.00,0.182
383.00,0.180
384.00,0.178
385.00,0.176
386.00,0.174
387.00,0.173
388.00,0.171
389.00,0.169
390.00,0.167
391.00,0.165
392.00,0.163
393.00,0.162
394.00,0.160
395.00,0.159
396.00,0.157
397.00,0.156
398.00,0.154
399.00,0.153
400.00,0.151
401.00,0.149
402.00,0.148
403.00,0.147
404.00,0.145
405.00,0.144
406.00,0.143
407.00,0.141
408.00,0.140
409.00,0.139
410.00,0.138
411.00,0.136
412.00,0.135
413.00,0.134
414.00,0.133
415.00,0.132
416.00,0.130
417.00,0.129
418.00,0.128
419.00,0.127
420.00,0.126
421.00,0.125
422.00,0.124
423.00,0.123
424.00,0.122
425.00,0.121
426.00,0.120
427.00,0.119
428.00,0.118
429.00,0.117
430.00,0.116
431.00,0.115
432.00,0.115
433.00,0.114
434.00,0.113
435.00,0.112
436.00,0.111
437.00,0.110
438.00,0.109
439.00,0.108
440.00,0.108
441.00,0.107
442.00,0.106
443.00,0.105
444.00,0.105
445.00,0.104
446.00,0.103
447.00,0.102
448.00,0.102
449.00,0.101
450.00,0.100
451.00,0.100
452.00,0.099
453.00,0.098
454.00,0.098
455.00,0.097
456.00,0.096
457.00,0.096
458.00,0.095
459.00,0.094
460.00,0.094
461.00,0.093
462.00,0.092
463.00,0.092
464.00,0.091
465.00,0.090
466.00,0.090
467.00,0.089
468.00,0.089
469.00,0.088
470.00,0.088
471.00,0.087
472.00,0.087
473.00,0.086
474.00,0.085
475.00,0.085
476.00,0.084
477.00,0.084
478.00,0.083
479.00,0.082
480.00,0.082
481.00,0.081
482.00,0.081
483.00,0.080
484.00,0.080
485.00,0.079
486.00,0.079
487.00,0.078
488.00,0.078
489.00,0.077
490.00,0.077
491.00,0.076
492.00,0.076
493.00,0.076
494.00,0.075
495.00,0.075
496.00,0.074
497.00,0.074
498.00,0.073
499.00,0.073
500.00,0.073
501.00,0.072
502.00,0.072
503.00,0.071
504.00,0.071
505.00,0.071
506.00,0.070
507.00,0.070
508.00,0.070
509.00,0.069
510.00,0.069
511.00,0.069
512.00,0.068
513.00,0.068
514.00,0.068
515.00,0.067
516.00,0.067
517.00,0.067
518.00,0.066
519.00,0.066
520.00,0.066
521.00,0.065
522.00,0.065
523.00,0.065
524.00,0.064
525.00,0.064
526.00,0.064
527.00,0.064
528.00,0.063
529.00,0.063
530.00,0.063
531.00,0.062
532.00,0.062
533.00,0.062
534.00,0.062
535.00,0.061
536.00,0.061
537.00,0.061
538.00,0.061
539.00,0.060
540.00,0.060
541.00,0.060
542.00,0.060
543.00,0.059
544.00,0.059
545.00,0.059
546.00,0.059
547.00,0.059
548.00,0.058
549.00,0.058
550.00,0.058
551.00,0.058
552.00,0.058
553.00,0.057
554.00,0.057
555.00,0.057
556.00,0.057
557.00,0.057
558.00,0.056
559.00,0.056
560.00,0.056
561.00,0.056
562.00,0.056
563.00,0.055
564.00,0.055
565.00,0.055
566.00,0.055
567.00,0.055
568.00,0.055
569.00,0.055
570.00,0.054
571.00,0.054
572.00,0.054
573.00,0.054
574.00,0.054
575.00,0.054
576.00,0.053
577.00,0.053
578.00,0.053
579.00,0.053
580.00,0.053
581.00,0.053
582.00,0.053
583.00,0.052
584.00,0.052
585.00,0.052
586.00,0.052
587.00,0.052
588.00,0.052
589.00,0.052
590.00,0.052
591.00,0.052
592.00,0.051
593.00,0.051
594.00,0.051
595.00,0.051
596.00,0.051
597.00,0.051
598.00,0.051
599.00,0.051
600.00,0.051
601.00,0.051
602.00,0.051
603.00,0.051
604.00,0.051
605.00,0.050
606.00,0.050
607.00,0.050
608.00,0.050
609.00,0.050
610.00,0.050
611.00,0.050
612.00,0.050
613.00,0.050
614.00,0.050
615.00,0.049
616.00,0.049
617.00,0.049
618.00,0.049
619.00,0.049
620.00,0.049
621.00,0.049
622.00,0.049
623.00,0.049
624.00,0.049
625.00,0.049
626.00,0.048
627.00,0.048
628.00,0.048
629.00,0.048
630.00,0.048
631.00,0.048
632.00,0.048
633.00,0.048
634.00,0.048
635.00,0.048
636.00,0.048
637.00,0.048
638.00,0.047
639.00,0.047
640.00,0.047
641.00,0.047
642.00,0.047
643.00,0.047
644.00,0.047
645.00,0.047
646.00,0.047
647.00,0.047
648.00,0.047
649.00,0.047
650.00,0.047
651.00,0.047
652.00,0.047
653.00,0.047
654.00,0.047
655.00,0.046
656.00,0.047
657.00,0.046
658.00,0.046
659.00,0.046
660.00,0.046
661.00,0.046
662.00,0.046
663.00,0.046
664.00,0.046
665.00,0.046
666.00,0.046
667.00,0.046
668.00,0.046
669.00,0.046
670.00,0.046
671.00,0.046
672.00,0.046
673.00,0.046
674.00,0.046
675.00,0.046
676.00,0.046
677.00,0.046
678.00,0.045
679.00,0.045
680.00,0.045
681.00,0.045
682.00,0.045
683.00,0.045
684.00,0.045
685.00,0.045
686.00,0.045
687.00,0.045
688.00,0.045
689.00,0.045
690.00,0.045
691.00,0.045
692.00,0.045
693.00,0.045
694.00,0.045
695.00,0.045
696.00,0.045
697.00,0.045
698.00,0.045
699.00,0.045
700.00,0.045
701.00,0.045
702.00,0.045
703.00,0.045
704.00,0.045
705.00,0.045
706.00,0.045
707.00,0.046
708.00,0.046
709.00,0.046
710.00,0.046
711.00,0.046
712.00,0.046
713.00,0.046
714.00,0.046
715.00,0.046
716.00,0.046
717.00,0.047
718.00,0.047
719.00,0.047
720.00,0.047
721.00,0.047
722.00,0.047
723.00,0.048
724.00,0.048
725.00,0.048
726.00,0.048
727.00,0.049
728.00,0.049
729.00,0.049
730.00,0.050
731.00,0.050
732.00,0.051
733.00,0.051
734.00,0.052
735.00,0.052
736.00,0.052
737.00,0.053
738.00,0.053
739.00,0.053
740.00,0.053
741.00,0.053
742.00,0.053
743.00,0.053
744.00,0.053
745.00,0.053
746.00,0.053
747.00,0.053
748.00,0.053
749.00,0.053
750.00,0.053
751.00,0.053
752.00,0.053
753.00,0.053
754.00,0.053
755.00,0.053
756.00,0.053
757.00,0.053
758.00,0.053
759.00,0.053
760.00,0.053
761.00,0.052
762.00,0.052
763.00,0.052
764.00,0.052
765.00,0.052
766.00,0.052
767.00,0.052
768.00,0.052
769.00,0.052
770.00,0.052
771.00,0.052
772.00,0.052
773.00,0.052
774.00,0.052
775.00,0.052
776.00,0.051
777.00,0.051
778.00,0.051
779.00,0.051
780.00,0.051
781.00,0.051
782.00,0.051
783.00,0.051
784.00,0.051
785.00,0.051
786.00,0.050
787.00,0.050
788.00,0.050
789.00,0.050
790.00,0.050
791.00,0.050
792.00,0.050
793.00,0.050
794.00,0.050
795.00,0.049
796.00,0.049
797.00,0.049
798.00,0.049
799.00,0.049
800.00,0.049
801.00,0.049
802.00,0.049
803.00,0.049
804.00,0.049
805.00,0.049
806.00,0.049
807.00,0.049
808.00,0.049
809.00,0.049
810.00,0.049
811.00,0.048
812.00,0.048
813.00,0.049
814.00,0.049
815.00,0.049
816.00,0.049
817.00,0.049
818.00,0.049
819.00,0.049
820.00,0.049
821.00,0.049
822.00,0.050
823.00,0.050
824.00,0.050
825.00,0.050
826.00,0.051
827.00,0.051
828.00,0.052
829.00,0.052
830.00,0.053
831.00,0.053
832.00,0.054
833.00,0.054
834.00,0.055
835.00,0.055
836.00,0.055
837.00,0.055
838.00,0.055
839.00,0.055
840.00,0.056
841.00,0.056
842.00,0.056
843.00,0.056
844.00,0.056
845.00,0.056
846.00,0.056
847.00,0.056
848.00,0.057
849.00,0.057
850.00,0.057
851.00,0.057
852.00,0.057
853.00,0.057
854.00,0.057
855.00,0.057
856.00,0.057
857.00,0.058
858.00,0.058
859.00,0.058
860.00,0.058
861.00,0.058
862.00,0.058
863.00,0.058
864.00,0.058
865.00,0.058
866.00,0.059
867.00,0.059
868.00,0.059
869.00,0.059
870.00,0.059
871.00,0.059
872.00,0.059
873.00,0.060
874.00,0.060
875.00,0.060
876.00,0.060
877.00,0.060
878.00,0.061
879.00,0.061
880.00,0.061
881.00,0.061
882.00,0.062
883.00,0.062
884.00,0.062
885.00,0.062
886.00,0.062
887.00,0.063
888.00,0.063
889.00,0.063
890.00,0.063
891.00,0.064
892.00,0.064
893.00,0.064
894.00,0.064
895.00,0.065
896.00,0.065
897.00,0.065
898.00,0.065
899.00,0.066
900.00,0.066
