"LTMSaisonBrettFut50x - RawData"
"Wavelength nm.","Abs."
190.00,3.061
191.00,3.510
192.00,3.790
193.00,3.811
194.00,3.738
195.00,3.644
196.00,3.854
197.00,3.780
198.00,3.763
199.00,3.739
200.00,3.763
201.00,3.570
202.00,3.784
203.00,3.706
204.00,3.630
205.00,3.655
206.00,3.598
207.00,3.377
208.00,3.278
209.00,3.179
210.00,3.048
211.00,2.941
212.00,2.799
213.00,2.684
214.00,2.556
215.00,2.438
216.00,2.341
217.00,2.229
218.00,2.126
219.00,2.029
220.00,1.926
221.00,1.834
222.00,1.747
223.00,1.662
224.00,1.575
225.00,1.495
226.00,1.416
227.00,1.336
228.00,1.259
229.00,1.189
230.00,1.122
231.00,1.062
232.00,1.010
233.00,0.963
234.00,0.922
235.00,0.888
236.00,0.858
237.00,0.833
238.00,0.811
239.00,0.794
240.00,0.779
241.00,0.768
242.00,0.759
243.00,0.753
244.00,0.749
245.00,0.746
246.00,0.744
247.00,0.743
248.00,0.743
249.00,0.744
250.00,0.745
251.00,0.747
252.00,0.749
253.00,0.752
254.00,0.754
255.00,0.756
256.00,0.759
257.00,0.761
258.00,0.763
259.00,0.765
260.00,0.767
261.00,0.769
262.00,0.771
263.00,0.773
264.00,0.774
265.00,0.775
266.00,0.775
267.00,0.775
268.00,0.773
269.00,0.771
270.00,0.767
271.00,0.762
272.00,0.757
273.00,0.750
274.00,0.743
275.00,0.735
276.00,0.726
277.00,0.717
278.00,0.706
279.00,0.695
280.00,0.685
281.00,0.673
282.00,0.660
283.00,0.646
284.00,0.631
285.00,0.616
286.00,0.601
287.00,0.587
288.00,0.573
289.00,0.559
290.00,0.544
291.00,0.529
292.00,0.515
293.00,0.503
294.00,0.492
295.00,0.482
296.00,0.473
297.00,0.465
298.00,0.456
299.00,0.448
300.00,0.441
301.00,0.434
302.00,0.427
303.00,0.421
304.00,0.416
305.00,0.410
306.00,0.406
307.00,0.401
308.00,0.396
309.00,0.392
310.00,0.388
311.00,0.384
312.00,0.380
313.00,0.377
314.00,0.373
315.00,0.370
316.00,0.367
317.00,0.364
318.00,0.360
319.00,0.356
320.00,0.353
321.00,0.349
322.00,0.345
323.00,0.341
324.00,0.338
325.00,0.334
326.00,0.329
327.00,0.325
328.00,0.320
329.00,0.315
330.00,0.311
331.00,0.306
332.00,0.301
333.00,0.296
334.00,0.291
335.00,0.286
336.00,0.282
337.00,0.277
338.00,0.272
339.00,0.267
340.00,0.263
341.00,0.257
342.00,0.252
343.00,0.247
344.00,0.243
345.00,0.238
346.00,0.235
347.00,0.230
348.00,0.226
349.00,0.222
350.00,0.218
351.00,0.215
352.00,0.211
353.00,0.208
354.00,0.204
355.00,0.201
356.00,0.198
357.00,0.195
358.00,0.192
359.00,0.189
360.00,0.186
361.00,0.184
362.00,0.181
363.00,0.179
364.00,0.177
365.00,0.175
366.00,0.173
367.00,0.170
368.00,0.168
369.00,0.166
370.00,0.164
371.00,0.163
372.00,0.161
373.00,0.159
374.00,0.158
375.00,0.156
376.00,0.154
377.00,0.153
378.00,0.151
379.00,0.150
380.00,0.149
381.00,0.147
382.00,0.146
383.00,0.145
384.00,0.144
385.00,0.142
386.00,0.141
387.00,0.140
388.00,0.139
389.00,0.138
390.00,0.137
391.00,0.136
392.00,0.135
393.00,0.134
394.00,0.133
395.00,0.132
396.00,0.132
397.00,0.131
398.00,0.130
399.00,0.129
400.00,0.128
401.00,0.128
402.00,0.127
403.00,0.126
404.00,0.126
405.00,0.125
406.00,0.125
407.00,0.124
408.00,0.123
409.00,0.123
410.00,0.122
411.00,0.122
412.00,0.121
413.00,0.121
414.00,0.120
415.00,0.120
416.00,0.119
417.00,0.119
418.00,0.119
419.00,0.118
420.00,0.118
421.00,0.118
422.00,0.117
423.00,0.117
424.00,0.116
425.00,0.116
426.00,0.115
427.00,0.115
428.00,0.115
429.00,0.114
430.00,0.114
431.00,0.114
432.00,0.113
433.00,0.113
434.00,0.113
435.00,0.112
436.00,0.112
437.00,0.112
438.00,0.111
439.00,0.111
440.00,0.111
441.00,0.110
442.00,0.110
443.00,0.110
444.00,0.110
445.00,0.109
446.00,0.109
447.00,0.109
448.00,0.108
449.00,0.108
450.00,0.108
451.00,0.108
452.00,0.107
453.00,0.107
454.00,0.107
455.00,0.107
456.00,0.107
457.00,0.106
458.00,0.106
459.00,0.106
460.00,0.106
461.00,0.105
462.00,0.105
463.00,0.105
464.00,0.105
465.00,0.104
466.00,0.104
467.00,0.104
468.00,0.104
469.00,0.103
470.00,0.103
471.00,0.103
472.00,0.103
473.00,0.103
474.00,0.102
475.00,0.102
476.00,0.102
477.00,0.102
478.00,0.102
479.00,0.101
480.00,0.101
481.00,0.101
482.00,0.101
483.00,0.101
484.00,0.100
485.00,0.100
486.00,0.100
487.00,0.100
488.00,0.100
489.00,0.099
490.00,0.099
491.00,0.099
492.00,0.099
493.00,0.099
494.00,0.099
495.00,0.098
496.00,0.098
497.00,0.098
498.00,0.098
499.00,0.098
500.00,0.097
501.00,0.097
502.00,0.097
503.00,0.097
504.00,0.097
505.00,0.097
506.00,0.096
507.00,0.096
508.00,0.096
509.00,0.096
510.00,0.096
511.00,0.096
512.00,0.095
513.00,0.095
514.00,0.095
515.00,0.095
516.00,0.095
517.00,0.095
518.00,0.095
519.00,0.094
520.00,0.094
521.00,0.094
522.00,0.094
523.00,0.094
524.00,0.094
525.00,0.093
526.00,0.093
527.00,0.093
528.00,0.093
529.00,0.093
530.00,0.093
531.00,0.092
532.00,0.092
533.00,0.092
534.00,0.092
535.00,0.092
536.00,0.092
537.00,0.091
538.00,0.091
539.00,0.091
540.00,0.091
541.00,0.091
542.00,0.091
543.00,0.091
544.00,0.090
545.00,0.090
546.00,0.090
547.00,0.090
548.00,0.090
549.00,0.090
550.00,0.090
551.00,0.090
552.00,0.089
553.00,0.089
554.00,0.089
555.00,0.089
556.00,0.089
557.00,0.089
558.00,0.089
559.00,0.089
560.00,0.088
561.00,0.088
562.00,0.088
563.00,0.088
564.00,0.088
565.00,0.088
566.00,0.088
567.00,0.088
568.00,0.088
569.00,0.088
570.00,0.087
571.00,0.087
572.00,0.087
573.00,0.087
574.00,0.087
575.00,0.087
576.00,0.087
577.00,0.087
578.00,0.087
579.00,0.086
580.00,0.086
581.00,0.086
582.00,0.086
583.00,0.086
584.00,0.086
585.00,0.086
586.00,0.086
587.00,0.086
588.00,0.086
589.00,0.086
590.00,0.086
591.00,0.086
592.00,0.085
593.00,0.085
594.00,0.085
595.00,0.085
596.00,0.085
597.00,0.085
598.00,0.085
599.00,0.085
600.00,0.085
601.00,0.085
602.00,0.085
603.00,0.085
604.00,0.085
605.00,0.085
606.00,0.085
607.00,0.084
608.00,0.084
609.00,0.084
610.00,0.084
611.00,0.084
612.00,0.084
613.00,0.084
614.00,0.084
615.00,0.084
616.00,0.084
617.00,0.084
618.00,0.083
619.00,0.083
620.00,0.083
621.00,0.083
622.00,0.083
623.00,0.083
624.00,0.083
625.00,0.083
626.00,0.083
627.00,0.083
628.00,0.083
629.00,0.083
630.00,0.082
631.00,0.082
632.00,0.082
633.00,0.082
634.00,0.082
635.00,0.082
636.00,0.082
637.00,0.082
638.00,0.082
639.00,0.082
640.00,0.082
641.00,0.081
642.00,0.081
643.00,0.081
644.00,0.081
645.00,0.081
646.00,0.081
647.00,0.081
648.00,0.081
649.00,0.081
650.00,0.081
651.00,0.081
652.00,0.081
653.00,0.081
654.00,0.081
655.00,0.081
656.00,0.081
657.00,0.081
658.00,0.081
659.00,0.080
660.00,0.080
661.00,0.080
662.00,0.080
663.00,0.080
664.00,0.080
665.00,0.080
666.00,0.080
667.00,0.080
668.00,0.080
669.00,0.080
670.00,0.080
671.00,0.080
672.00,0.079
673.00,0.079
674.00,0.079
675.00,0.079
676.00,0.079
677.00,0.079
678.00,0.079
679.00,0.079
680.00,0.079
681.00,0.079
682.00,0.079
683.00,0.079
684.00,0.079
685.00,0.079
686.00,0.079
687.00,0.079
688.00,0.079
689.00,0.079
690.00,0.078
691.00,0.078
692.00,0.078
693.00,0.078
694.00,0.078
695.00,0.078
696.00,0.078
697.00,0.078
698.00,0.078
699.00,0.078
700.00,0.078
701.00,0.078
702.00,0.078
703.00,0.078
704.00,0.078
705.00,0.078
706.00,0.078
707.00,0.078
708.00,0.078
709.00,0.078
710.00,0.078
711.00,0.078
712.00,0.078
713.00,0.078
714.00,0.079
715.00,0.079
716.00,0.079
717.00,0.079
718.00,0.079
719.00,0.079
720.00,0.079
721.00,0.080
722.00,0.080
723.00,0.080
724.00,0.080
725.00,0.080
726.00,0.081
727.00,0.081
728.00,0.081
729.00,0.081
730.00,0.082
731.00,0.082
732.00,0.083
733.00,0.083
734.00,0.084
735.00,0.084
736.00,0.084
737.00,0.084
738.00,0.085
739.00,0.085
740.00,0.085
741.00,0.085
742.00,0.085
743.00,0.085
744.00,0.085
745.00,0.085
746.00,0.084
747.00,0.084
748.00,0.084
749.00,0.084
750.00,0.084
751.00,0.084
752.00,0.084
753.00,0.084
754.00,0.084
755.00,0.084
756.00,0.084
757.00,0.084
758.00,0.084
759.00,0.084
760.00,0.084
761.00,0.084
762.00,0.083
763.00,0.083
764.00,0.083
765.00,0.083
766.00,0.083
767.00,0.083
768.00,0.083
769.00,0.083
770.00,0.083
771.00,0.083
772.00,0.083
773.00,0.082
774.00,0.082
775.00,0.082
776.00,0.082
777.00,0.082
778.00,0.082
779.00,0.082
780.00,0.082
781.00,0.081
782.00,0.081
783.00,0.081
784.00,0.081
785.00,0.081
786.00,0.081
787.00,0.081
788.00,0.080
789.00,0.080
790.00,0.080
791.00,0.080
792.00,0.080
793.00,0.080
794.00,0.080
795.00,0.079
796.00,0.079
797.00,0.079
798.00,0.079
799.00,0.079
800.00,0.079
801.00,0.079
802.00,0.079
803.00,0.078
804.00,0.078
805.00,0.078
806.00,0.078
807.00,0.078
808.00,0.078
809.00,0.078
810.00,0.078
811.00,0.078
812.00,0.078
813.00,0.078
814.00,0.078
815.00,0.078
816.00,0.078
817.00,0.078
818.00,0.078
819.00,0.078
820.00,0.078
821.00,0.079
822.00,0.079
823.00,0.079
824.00,0.079
825.00,0.080
826.00,0.080
827.00,0.080
828.00,0.081
829.00,0.081
830.00,0.082
831.00,0.082
832.00,0.083
833.00,0.083
834.00,0.083
835.00,0.084
836.00,0.084
837.00,0.084
838.00,0.084
839.00,0.084
840.00,0.084
841.00,0.084
842.00,0.084
843.00,0.084
844.00,0.085
845.00,0.085
846.00,0.085
847.00,0.085
848.00,0.085
849.00,0.085
850.00,0.085
851.00,0.085
852.00,0.085
853.00,0.085
854.00,0.085
855.00,0.085
856.00,0.085
857.00,0.085
858.00,0.085
859.00,0.085
860.00,0.085
861.00,0.086
862.00,0.086
863.00,0.086
864.00,0.086
865.00,0.086
866.00,0.086
867.00,0.086
868.00,0.086
869.00,0.086
870.00,0.086
871.00,0.086
872.00,0.086
873.00,0.087
874.00,0.087
875.00,0.087
876.00,0.087
877.00,0.087
878.00,0.087
879.00,0.088
880.00,0.088
881.00,0.088
882.00,0.088
883.00,0.088
884.00,0.089
885.00,0.089
886.00,0.089
887.00,0.089
888.00,0.090
889.00,0.090
890.00,0.090
891.00,0.090
892.00,0.090
893.00,0.090
894.00,0.091
895.00,0.091
896.00,0.091
897.00,0.091
898.00,0.091
899.00,0.092
900.00,0.092
