"Luda100x - RawData"
"Wavelength nm.","Abs."
190.00,3.205
191.00,3.530
192.00,3.461
193.00,3.414
194.00,3.331
195.00,3.363
196.00,3.640
197.00,3.637
198.00,3.623
199.00,3.635
200.00,3.470
201.00,3.466
202.00,3.303
203.00,3.217
204.00,3.112
205.00,2.930
206.00,2.811
207.00,2.689
208.00,2.589
209.00,2.469
210.00,2.368
211.00,2.257
212.00,2.161
213.00,2.068
214.00,1.979
215.00,1.891
216.00,1.806
217.00,1.726
218.00,1.646
219.00,1.567
220.00,1.492
221.00,1.423
222.00,1.357
223.00,1.292
224.00,1.227
225.00,1.163
226.00,1.100
227.00,1.037
228.00,0.977
229.00,0.922
230.00,0.869
231.00,0.823
232.00,0.780
233.00,0.742
234.00,0.709
235.00,0.680
236.00,0.656
237.00,0.635
238.00,0.617
239.00,0.603
240.00,0.591
241.00,0.582
242.00,0.575
243.00,0.570
244.00,0.567
245.00,0.565
246.00,0.565
247.00,0.565
248.00,0.566
249.00,0.568
250.00,0.571
251.00,0.574
252.00,0.577
253.00,0.581
254.00,0.584
255.00,0.588
256.00,0.592
257.00,0.595
258.00,0.596
259.00,0.598
260.00,0.599
261.00,0.599
262.00,0.601
263.00,0.602
264.00,0.603
265.00,0.603
266.00,0.603
267.00,0.602
268.00,0.601
269.00,0.599
270.00,0.596
271.00,0.592
272.00,0.588
273.00,0.583
274.00,0.578
275.00,0.571
276.00,0.564
277.00,0.557
278.00,0.548
279.00,0.538
280.00,0.529
281.00,0.519
282.00,0.509
283.00,0.496
284.00,0.484
285.00,0.471
286.00,0.459
287.00,0.447
288.00,0.434
289.00,0.421
290.00,0.408
291.00,0.394
292.00,0.382
293.00,0.372
294.00,0.363
295.00,0.355
296.00,0.349
297.00,0.342
298.00,0.336
299.00,0.331
300.00,0.326
301.00,0.321
302.00,0.316
303.00,0.312
304.00,0.308
305.00,0.305
306.00,0.301
307.00,0.296
308.00,0.293
309.00,0.289
310.00,0.286
311.00,0.282
312.00,0.279
313.00,0.276
314.00,0.272
315.00,0.269
316.00,0.266
317.00,0.262
318.00,0.259
319.00,0.255
320.00,0.252
321.00,0.248
322.00,0.244
323.00,0.240
324.00,0.236
325.00,0.232
326.00,0.228
327.00,0.224
328.00,0.220
329.00,0.215
330.00,0.211
331.00,0.207
332.00,0.203
333.00,0.198
334.00,0.194
335.00,0.190
336.00,0.185
337.00,0.181
338.00,0.177
339.00,0.174
340.00,0.170
341.00,0.164
342.00,0.161
343.00,0.157
344.00,0.154
345.00,0.150
346.00,0.146
347.00,0.143
348.00,0.140
349.00,0.136
350.00,0.133
351.00,0.131
352.00,0.128
353.00,0.125
354.00,0.123
355.00,0.120
356.00,0.118
357.00,0.115
358.00,0.113
359.00,0.110
360.00,0.108
361.00,0.106
362.00,0.105
363.00,0.103
364.00,0.101
365.00,0.099
366.00,0.098
367.00,0.096
368.00,0.094
369.00,0.093
370.00,0.091
371.00,0.090
372.00,0.089
373.00,0.087
374.00,0.086
375.00,0.084
376.00,0.083
377.00,0.082
378.00,0.081
379.00,0.079
380.00,0.078
381.00,0.077
382.00,0.076
383.00,0.074
384.00,0.073
385.00,0.072
386.00,0.072
387.00,0.071
388.00,0.070
389.00,0.069
390.00,0.068
391.00,0.067
392.00,0.066
393.00,0.065
394.00,0.064
395.00,0.063
396.00,0.063
397.00,0.062
398.00,0.061
399.00,0.061
400.00,0.060
401.00,0.059
402.00,0.059
403.00,0.058
404.00,0.058
405.00,0.057
406.00,0.057
407.00,0.056
408.00,0.056
409.00,0.055
410.00,0.055
411.00,0.054
412.00,0.054
413.00,0.053
414.00,0.053
415.00,0.053
416.00,0.052
417.00,0.052
418.00,0.052
419.00,0.051
420.00,0.051
421.00,0.051
422.00,0.050
423.00,0.050
424.00,0.050
425.00,0.050
426.00,0.049
427.00,0.049
428.00,0.049
429.00,0.049
430.00,0.048
431.00,0.048
432.00,0.048
433.00,0.048
434.00,0.047
435.00,0.047
436.00,0.047
437.00,0.047
438.00,0.047
439.00,0.047
440.00,0.046
441.00,0.046
442.00,0.046
443.00,0.046
444.00,0.046
445.00,0.045
446.00,0.045
447.00,0.045
448.00,0.045
449.00,0.045
450.00,0.045
451.00,0.045
452.00,0.044
453.00,0.044
454.00,0.044
455.00,0.044
456.00,0.044
457.00,0.044
458.00,0.043
459.00,0.043
460.00,0.043
461.00,0.043
462.00,0.043
463.00,0.043
464.00,0.043
465.00,0.042
466.00,0.042
467.00,0.042
468.00,0.042
469.00,0.042
470.00,0.042
471.00,0.042
472.00,0.042
473.00,0.042
474.00,0.041
475.00,0.041
476.00,0.041
477.00,0.041
478.00,0.041
479.00,0.041
480.00,0.041
481.00,0.041
482.00,0.041
483.00,0.040
484.00,0.040
485.00,0.040
486.00,0.040
487.00,0.040
488.00,0.040
489.00,0.040
490.00,0.040
491.00,0.040
492.00,0.040
493.00,0.039
494.00,0.039
495.00,0.039
496.00,0.039
497.00,0.039
498.00,0.039
499.00,0.039
500.00,0.039
501.00,0.039
502.00,0.039
503.00,0.039
504.00,0.039
505.00,0.038
506.00,0.038
507.00,0.038
508.00,0.038
509.00,0.038
510.00,0.038
511.00,0.038
512.00,0.038
513.00,0.038
514.00,0.038
515.00,0.038
516.00,0.038
517.00,0.038
518.00,0.038
519.00,0.038
520.00,0.037
521.00,0.037
522.00,0.037
523.00,0.037
524.00,0.037
525.00,0.037
526.00,0.037
527.00,0.037
528.00,0.037
529.00,0.037
530.00,0.037
531.00,0.037
532.00,0.037
533.00,0.037
534.00,0.037
535.00,0.037
536.00,0.037
537.00,0.037
538.00,0.036
539.00,0.036
540.00,0.036
541.00,0.036
542.00,0.036
543.00,0.036
544.00,0.036
545.00,0.036
546.00,0.036
547.00,0.036
548.00,0.036
549.00,0.036
550.00,0.036
551.00,0.036
552.00,0.036
553.00,0.036
554.00,0.036
555.00,0.036
556.00,0.036
557.00,0.036
558.00,0.036
559.00,0.036
560.00,0.036
561.00,0.036
562.00,0.036
563.00,0.036
564.00,0.036
565.00,0.036
566.00,0.036
567.00,0.036
568.00,0.035
569.00,0.035
570.00,0.035
571.00,0.035
572.00,0.035
573.00,0.035
574.00,0.035
575.00,0.035
576.00,0.035
577.00,0.035
578.00,0.035
579.00,0.035
580.00,0.035
581.00,0.035
582.00,0.035
583.00,0.035
584.00,0.035
585.00,0.035
586.00,0.035
587.00,0.035
588.00,0.035
589.00,0.035
590.00,0.035
591.00,0.035
592.00,0.035
593.00,0.035
594.00,0.035
595.00,0.035
596.00,0.035
597.00,0.035
598.00,0.035
599.00,0.035
600.00,0.035
601.00,0.035
602.00,0.035
603.00,0.035
604.00,0.035
605.00,0.035
606.00,0.035
607.00,0.035
608.00,0.035
609.00,0.035
610.00,0.035
611.00,0.035
612.00,0.035
613.00,0.035
614.00,0.035
615.00,0.035
616.00,0.035
617.00,0.035
618.00,0.035
619.00,0.035
620.00,0.035
621.00,0.035
622.00,0.035
623.00,0.035
624.00,0.035
625.00,0.035
626.00,0.035
627.00,0.035
628.00,0.035
629.00,0.035
630.00,0.035
631.00,0.035
632.00,0.035
633.00,0.035
634.00,0.035
635.00,0.035
636.00,0.035
637.00,0.035
638.00,0.035
639.00,0.035
640.00,0.035
641.00,0.035
642.00,0.035
643.00,0.035
644.00,0.035
645.00,0.035
646.00,0.035
647.00,0.035
648.00,0.035
649.00,0.035
650.00,0.035
651.00,0.035
652.00,0.035
653.00,0.035
654.00,0.035
655.00,0.035
656.00,0.035
657.00,0.035
658.00,0.035
659.00,0.035
660.00,0.035
661.00,0.035
662.00,0.035
663.00,0.035
664.00,0.035
665.00,0.035
666.00,0.035
667.00,0.035
668.00,0.035
669.00,0.035
670.00,0.035
671.00,0.035
672.00,0.035
673.00,0.035
674.00,0.035
675.00,0.035
676.00,0.035
677.00,0.035
678.00,0.035
679.00,0.035
680.00,0.035
681.00,0.035
682.00,0.035
683.00,0.035
684.00,0.035
685.00,0.035
686.00,0.035
687.00,0.035
688.00,0.035
689.00,0.035
690.00,0.035
691.00,0.035
692.00,0.035
693.00,0.035
694.00,0.035
695.00,0.035
696.00,0.035
697.00,0.035
698.00,0.035
699.00,0.035
700.00,0.035
701.00,0.035
702.00,0.035
703.00,0.036
704.00,0.036
705.00,0.036
706.00,0.036
707.00,0.036
708.00,0.036
709.00,0.036
710.00,0.036
711.00,0.036
712.00,0.036
713.00,0.037
714.00,0.037
715.00,0.037
716.00,0.037
717.00,0.037
718.00,0.038
719.00,0.038
720.00,0.038
721.00,0.038
722.00,0.038
723.00,0.039
724.00,0.039
725.00,0.039
726.00,0.039
727.00,0.040
728.00,0.040
729.00,0.041
730.00,0.041
731.00,0.042
732.00,0.042
733.00,0.043
734.00,0.043
735.00,0.043
736.00,0.044
737.00,0.044
738.00,0.044
739.00,0.044
740.00,0.044
741.00,0.044
742.00,0.044
743.00,0.044
744.00,0.045
745.00,0.045
746.00,0.044
747.00,0.044
748.00,0.044
749.00,0.044
750.00,0.044
751.00,0.045
752.00,0.045
753.00,0.045
754.00,0.045
755.00,0.045
756.00,0.044
757.00,0.044
758.00,0.045
759.00,0.045
760.00,0.045
761.00,0.044
762.00,0.044
763.00,0.044
764.00,0.044
765.00,0.044
766.00,0.044
767.00,0.044
768.00,0.044
769.00,0.044
770.00,0.044
771.00,0.044
772.00,0.044
773.00,0.044
774.00,0.044
775.00,0.044
776.00,0.044
777.00,0.044
778.00,0.043
779.00,0.043
780.00,0.043
781.00,0.043
782.00,0.043
783.00,0.043
784.00,0.043
785.00,0.043
786.00,0.043
787.00,0.043
788.00,0.043
789.00,0.043
790.00,0.042
791.00,0.042
792.00,0.042
793.00,0.042
794.00,0.042
795.00,0.042
796.00,0.042
797.00,0.042
798.00,0.042
799.00,0.042
800.00,0.041
801.00,0.041
802.00,0.041
803.00,0.041
804.00,0.041
805.00,0.041
806.00,0.041
807.00,0.041
808.00,0.041
809.00,0.041
810.00,0.041
811.00,0.041
812.00,0.041
813.00,0.041
814.00,0.041
815.00,0.041
816.00,0.041
817.00,0.042
818.00,0.042
819.00,0.042
820.00,0.042
821.00,0.042
822.00,0.042
823.00,0.043
824.00,0.043
825.00,0.043
826.00,0.044
827.00,0.044
828.00,0.045
829.00,0.045
830.00,0.046
831.00,0.047
832.00,0.047
833.00,0.047
834.00,0.048
835.00,0.048
836.00,0.048
837.00,0.048
838.00,0.048
839.00,0.049
840.00,0.049
841.00,0.049
842.00,0.049
843.00,0.049
844.00,0.049
845.00,0.049
846.00,0.050
847.00,0.050
848.00,0.050
849.00,0.050
850.00,0.050
851.00,0.050
852.00,0.050
853.00,0.051
854.00,0.051
855.00,0.051
856.00,0.051
857.00,0.051
858.00,0.051
859.00,0.051
860.00,0.051
861.00,0.051
862.00,0.051
863.00,0.052
864.00,0.052
865.00,0.052
866.00,0.052
867.00,0.052
868.00,0.052
869.00,0.053
870.00,0.053
871.00,0.053
872.00,0.053
873.00,0.053
874.00,0.053
875.00,0.054
876.00,0.054
877.00,0.054
878.00,0.054
879.00,0.055
880.00,0.055
881.00,0.055
882.00,0.055
883.00,0.055
884.00,0.056
885.00,0.056
886.00,0.056
887.00,0.056
888.00,0.057
889.00,0.057
890.00,0.057
891.00,0.058
892.00,0.058
893.00,0.058
894.00,0.058
895.00,0.058
896.00,0.059
897.00,0.059
898.00,0.059
899.00,0.060
900.00,0.060
