"MaledictionStBock100x - RawData"
"Wavelength nm.","Abs."
190.00,4.000
191.00,4.000
192.00,3.908
193.00,3.939
194.00,3.891
195.00,3.752
196.00,3.918
197.00,3.739
198.00,3.799
199.00,3.802
200.00,3.544
201.00,3.347
202.00,3.170
203.00,3.040
204.00,2.897
205.00,2.770
206.00,2.677
207.00,2.558
208.00,2.463
209.00,2.373
210.00,2.298
211.00,2.216
212.00,2.142
213.00,2.069
214.00,2.001
215.00,1.939
216.00,1.877
217.00,1.818
218.00,1.761
219.00,1.705
220.00,1.649
221.00,1.598
222.00,1.548
223.00,1.499
224.00,1.450
225.00,1.403
226.00,1.357
227.00,1.310
228.00,1.263
229.00,1.218
230.00,1.174
231.00,1.133
232.00,1.094
233.00,1.057
234.00,1.024
235.00,0.994
236.00,0.966
237.00,0.941
238.00,0.917
239.00,0.895
240.00,0.876
241.00,0.860
242.00,0.847
243.00,0.836
244.00,0.828
245.00,0.822
246.00,0.817
247.00,0.813
248.00,0.809
249.00,0.807
250.00,0.806
251.00,0.806
252.00,0.807
253.00,0.808
254.00,0.809
255.00,0.810
256.00,0.812
257.00,0.814
258.00,0.816
259.00,0.817
260.00,0.818
261.00,0.820
262.00,0.821
263.00,0.823
264.00,0.825
265.00,0.826
266.00,0.828
267.00,0.829
268.00,0.830
269.00,0.831
270.00,0.831
271.00,0.832
272.00,0.831
273.00,0.831
274.00,0.830
275.00,0.828
276.00,0.825
277.00,0.823
278.00,0.818
279.00,0.814
280.00,0.809
281.00,0.803
282.00,0.797
283.00,0.789
284.00,0.782
285.00,0.772
286.00,0.763
287.00,0.753
288.00,0.743
289.00,0.732
290.00,0.720
291.00,0.708
292.00,0.696
293.00,0.685
294.00,0.674
295.00,0.663
296.00,0.652
297.00,0.643
298.00,0.632
299.00,0.621
300.00,0.611
301.00,0.602
302.00,0.593
303.00,0.584
304.00,0.575
305.00,0.566
306.00,0.558
307.00,0.549
308.00,0.541
309.00,0.533
310.00,0.526
311.00,0.519
312.00,0.512
313.00,0.505
314.00,0.499
315.00,0.492
316.00,0.487
317.00,0.481
318.00,0.475
319.00,0.470
320.00,0.464
321.00,0.459
322.00,0.454
323.00,0.448
324.00,0.443
325.00,0.438
326.00,0.433
327.00,0.428
328.00,0.423
329.00,0.418
330.00,0.413
331.00,0.408
332.00,0.404
333.00,0.399
334.00,0.394
335.00,0.390
336.00,0.386
337.00,0.382
338.00,0.378
339.00,0.374
340.00,0.370
341.00,0.365
342.00,0.360
343.00,0.356
344.00,0.353
345.00,0.349
346.00,0.345
347.00,0.342
348.00,0.338
349.00,0.334
350.00,0.331
351.00,0.328
352.00,0.324
353.00,0.322
354.00,0.318
355.00,0.315
356.00,0.312
357.00,0.309
358.00,0.306
359.00,0.303
360.00,0.301
361.00,0.298
362.00,0.295
363.00,0.292
364.00,0.290
365.00,0.287
366.00,0.285
367.00,0.282
368.00,0.280
369.00,0.277
370.00,0.275
371.00,0.272
372.00,0.270
373.00,0.267
374.00,0.265
375.00,0.262
376.00,0.260
377.00,0.258
378.00,0.255
379.00,0.253
380.00,0.250
381.00,0.248
382.00,0.246
383.00,0.244
384.00,0.241
385.00,0.239
386.00,0.237
387.00,0.235
388.00,0.233
389.00,0.231
390.00,0.229
391.00,0.227
392.00,0.225
393.00,0.223
394.00,0.221
395.00,0.219
396.00,0.217
397.00,0.215
398.00,0.214
399.00,0.212
400.00,0.210
401.00,0.208
402.00,0.207
403.00,0.205
404.00,0.203
405.00,0.202
406.00,0.200
407.00,0.199
408.00,0.197
409.00,0.195
410.00,0.194
411.00,0.192
412.00,0.191
413.00,0.189
414.00,0.188
415.00,0.186
416.00,0.185
417.00,0.184
418.00,0.182
419.00,0.181
420.00,0.180
421.00,0.178
422.00,0.177
423.00,0.176
424.00,0.174
425.00,0.173
426.00,0.172
427.00,0.170
428.00,0.169
429.00,0.168
430.00,0.167
431.00,0.166
432.00,0.164
433.00,0.163
434.00,0.162
435.00,0.161
436.00,0.160
437.00,0.159
438.00,0.158
439.00,0.156
440.00,0.155
441.00,0.154
442.00,0.153
443.00,0.152
444.00,0.151
445.00,0.150
446.00,0.149
447.00,0.148
448.00,0.147
449.00,0.146
450.00,0.146
451.00,0.145
452.00,0.144
453.00,0.143
454.00,0.142
455.00,0.141
456.00,0.140
457.00,0.139
458.00,0.138
459.00,0.137
460.00,0.136
461.00,0.135
462.00,0.135
463.00,0.134
464.00,0.133
465.00,0.132
466.00,0.131
467.00,0.131
468.00,0.130
469.00,0.129
470.00,0.128
471.00,0.127
472.00,0.127
473.00,0.126
474.00,0.125
475.00,0.124
476.00,0.124
477.00,0.123
478.00,0.122
479.00,0.121
480.00,0.120
481.00,0.120
482.00,0.119
483.00,0.118
484.00,0.118
485.00,0.117
486.00,0.116
487.00,0.116
488.00,0.115
489.00,0.114
490.00,0.114
491.00,0.113
492.00,0.112
493.00,0.112
494.00,0.111
495.00,0.111
496.00,0.110
497.00,0.109
498.00,0.109
499.00,0.108
500.00,0.108
501.00,0.107
502.00,0.106
503.00,0.106
504.00,0.105
505.00,0.105
506.00,0.104
507.00,0.104
508.00,0.103
509.00,0.103
510.00,0.102
511.00,0.102
512.00,0.101
513.00,0.101
514.00,0.100
515.00,0.100
516.00,0.099
517.00,0.099
518.00,0.098
519.00,0.098
520.00,0.097
521.00,0.097
522.00,0.097
523.00,0.096
524.00,0.096
525.00,0.095
526.00,0.095
527.00,0.094
528.00,0.094
529.00,0.093
530.00,0.093
531.00,0.093
532.00,0.092
533.00,0.092
534.00,0.091
535.00,0.091
536.00,0.091
537.00,0.090
538.00,0.090
539.00,0.090
540.00,0.089
541.00,0.089
542.00,0.089
543.00,0.088
544.00,0.088
545.00,0.088
546.00,0.087
547.00,0.087
548.00,0.087
549.00,0.086
550.00,0.086
551.00,0.086
552.00,0.085
553.00,0.085
554.00,0.085
555.00,0.084
556.00,0.084
557.00,0.084
558.00,0.083
559.00,0.083
560.00,0.083
561.00,0.083
562.00,0.082
563.00,0.082
564.00,0.082
565.00,0.081
566.00,0.081
567.00,0.081
568.00,0.081
569.00,0.080
570.00,0.080
571.00,0.080
572.00,0.079
573.00,0.079
574.00,0.079
575.00,0.079
576.00,0.078
577.00,0.078
578.00,0.078
579.00,0.078
580.00,0.077
581.00,0.077
582.00,0.077
583.00,0.077
584.00,0.076
585.00,0.076
586.00,0.076
587.00,0.076
588.00,0.076
589.00,0.075
590.00,0.075
591.00,0.075
592.00,0.075
593.00,0.075
594.00,0.075
595.00,0.074
596.00,0.074
597.00,0.074
598.00,0.074
599.00,0.074
600.00,0.074
601.00,0.073
602.00,0.073
603.00,0.073
604.00,0.073
605.00,0.073
606.00,0.073
607.00,0.072
608.00,0.072
609.00,0.072
610.00,0.072
611.00,0.072
612.00,0.072
613.00,0.072
614.00,0.071
615.00,0.071
616.00,0.071
617.00,0.071
618.00,0.071
619.00,0.070
620.00,0.070
621.00,0.070
622.00,0.070
623.00,0.070
624.00,0.070
625.00,0.069
626.00,0.069
627.00,0.069
628.00,0.069
629.00,0.069
630.00,0.069
631.00,0.069
632.00,0.069
633.00,0.068
634.00,0.068
635.00,0.068
636.00,0.068
637.00,0.068
638.00,0.067
639.00,0.067
640.00,0.067
641.00,0.067
642.00,0.067
643.00,0.067
644.00,0.067
645.00,0.066
646.00,0.066
647.00,0.066
648.00,0.066
649.00,0.066
650.00,0.066
651.00,0.066
652.00,0.065
653.00,0.065
654.00,0.065
655.00,0.065
656.00,0.065
657.00,0.065
658.00,0.065
659.00,0.065
660.00,0.065
661.00,0.064
662.00,0.064
663.00,0.064
664.00,0.064
665.00,0.064
666.00,0.064
667.00,0.064
668.00,0.064
669.00,0.064
670.00,0.063
671.00,0.063
672.00,0.063
673.00,0.063
674.00,0.063
675.00,0.063
676.00,0.063
677.00,0.063
678.00,0.063
679.00,0.063
680.00,0.062
681.00,0.062
682.00,0.062
683.00,0.062
684.00,0.062
685.00,0.062
686.00,0.062
687.00,0.062
688.00,0.062
689.00,0.062
690.00,0.062
691.00,0.062
692.00,0.062
693.00,0.062
694.00,0.061
695.00,0.062
696.00,0.062
697.00,0.061
698.00,0.061
699.00,0.061
700.00,0.061
701.00,0.061
702.00,0.061
703.00,0.061
704.00,0.061
705.00,0.061
706.00,0.061
707.00,0.061
708.00,0.061
709.00,0.061
710.00,0.061
711.00,0.061
712.00,0.061
713.00,0.061
714.00,0.062
715.00,0.062
716.00,0.062
717.00,0.062
718.00,0.062
719.00,0.062
720.00,0.062
721.00,0.063
722.00,0.063
723.00,0.063
724.00,0.063
725.00,0.063
726.00,0.064
727.00,0.064
728.00,0.064
729.00,0.064
730.00,0.065
731.00,0.065
732.00,0.066
733.00,0.066
734.00,0.067
735.00,0.067
736.00,0.067
737.00,0.067
738.00,0.068
739.00,0.068
740.00,0.068
741.00,0.068
742.00,0.068
743.00,0.068
744.00,0.068
745.00,0.067
746.00,0.067
747.00,0.067
748.00,0.067
749.00,0.067
750.00,0.067
751.00,0.067
752.00,0.067
753.00,0.067
754.00,0.067
755.00,0.067
756.00,0.067
757.00,0.067
758.00,0.067
759.00,0.067
760.00,0.067
761.00,0.067
762.00,0.066
763.00,0.066
764.00,0.066
765.00,0.066
766.00,0.066
767.00,0.066
768.00,0.066
769.00,0.066
770.00,0.066
771.00,0.066
772.00,0.066
773.00,0.066
774.00,0.065
775.00,0.065
776.00,0.065
777.00,0.065
778.00,0.065
779.00,0.065
780.00,0.065
781.00,0.065
782.00,0.065
783.00,0.064
784.00,0.064
785.00,0.064
786.00,0.064
787.00,0.064
788.00,0.064
789.00,0.064
790.00,0.064
791.00,0.063
792.00,0.063
793.00,0.063
794.00,0.063
795.00,0.063
796.00,0.063
797.00,0.062
798.00,0.062
799.00,0.062
800.00,0.062
801.00,0.062
802.00,0.062
803.00,0.062
804.00,0.062
805.00,0.062
806.00,0.061
807.00,0.061
808.00,0.061
809.00,0.061
810.00,0.061
811.00,0.061
812.00,0.061
813.00,0.061
814.00,0.061
815.00,0.061
816.00,0.061
817.00,0.061
818.00,0.061
819.00,0.061
820.00,0.061
821.00,0.061
822.00,0.062
823.00,0.062
824.00,0.062
825.00,0.063
826.00,0.063
827.00,0.063
828.00,0.064
829.00,0.065
830.00,0.065
831.00,0.066
832.00,0.066
833.00,0.066
834.00,0.067
835.00,0.067
836.00,0.067
837.00,0.067
838.00,0.067
839.00,0.068
840.00,0.068
841.00,0.068
842.00,0.068
843.00,0.068
844.00,0.068
845.00,0.068
846.00,0.068
847.00,0.068
848.00,0.068
849.00,0.068
850.00,0.068
851.00,0.068
852.00,0.068
853.00,0.068
854.00,0.069
855.00,0.069
856.00,0.069
857.00,0.069
858.00,0.069
859.00,0.069
860.00,0.069
861.00,0.069
862.00,0.069
863.00,0.069
864.00,0.069
865.00,0.069
866.00,0.069
867.00,0.069
868.00,0.069
869.00,0.070
870.00,0.070
871.00,0.070
872.00,0.070
873.00,0.070
874.00,0.070
875.00,0.070
876.00,0.071
877.00,0.071
878.00,0.071
879.00,0.071
880.00,0.072
881.00,0.072
882.00,0.072
883.00,0.072
884.00,0.072
885.00,0.073
886.00,0.073
887.00,0.073
888.00,0.073
889.00,0.073
890.00,0.074
891.00,0.074
892.00,0.074
893.00,0.074
894.00,0.074
895.00,0.075
896.00,0.075
897.00,0.075
898.00,0.075
899.00,0.076
900.00,0.076
