"McAuslanIPA_50x - RawData"
"Wavelength nm.","Abs."
190.00,3.277
191.00,3.211
192.00,3.209
193.00,3.552
194.00,3.473
195.00,3.695
196.00,3.567
197.00,3.878
198.00,3.626
199.00,3.769
200.00,3.661
201.00,3.672
202.00,3.678
203.00,3.853
204.00,3.813
205.00,3.727
206.00,3.764
207.00,3.790
208.00,3.655
209.00,3.698
210.00,3.552
211.00,3.409
212.00,3.392
213.00,3.228
214.00,3.059
215.00,2.948
216.00,2.841
217.00,2.716
218.00,2.603
219.00,2.494
220.00,2.374
221.00,2.266
222.00,2.167
223.00,2.065
224.00,1.965
225.00,1.870
226.00,1.774
227.00,1.679
228.00,1.586
229.00,1.502
230.00,1.421
231.00,1.347
232.00,1.281
233.00,1.220
234.00,1.169
235.00,1.124
236.00,1.086
237.00,1.054
238.00,1.026
239.00,1.004
240.00,0.986
241.00,0.971
242.00,0.961
243.00,0.954
244.00,0.949
245.00,0.947
246.00,0.946
247.00,0.947
248.00,0.949
249.00,0.952
250.00,0.955
251.00,0.960
252.00,0.965
253.00,0.971
254.00,0.977
255.00,0.983
256.00,0.988
257.00,0.992
258.00,0.995
259.00,0.997
260.00,0.999
261.00,1.001
262.00,1.003
263.00,1.005
264.00,1.007
265.00,1.009
266.00,1.010
267.00,1.011
268.00,1.011
269.00,1.009
270.00,1.006
271.00,1.001
272.00,0.996
273.00,0.989
274.00,0.981
275.00,0.970
276.00,0.959
277.00,0.946
278.00,0.932
279.00,0.916
280.00,0.900
281.00,0.883
282.00,0.865
283.00,0.844
284.00,0.822
285.00,0.799
286.00,0.776
287.00,0.753
288.00,0.729
289.00,0.706
290.00,0.681
291.00,0.658
292.00,0.636
293.00,0.617
294.00,0.600
295.00,0.584
296.00,0.571
297.00,0.559
298.00,0.546
299.00,0.535
300.00,0.524
301.00,0.514
302.00,0.506
303.00,0.497
304.00,0.490
305.00,0.482
306.00,0.475
307.00,0.468
308.00,0.461
309.00,0.455
310.00,0.449
311.00,0.443
312.00,0.437
313.00,0.432
314.00,0.426
315.00,0.421
316.00,0.415
317.00,0.410
318.00,0.405
319.00,0.399
320.00,0.393
321.00,0.387
322.00,0.381
323.00,0.375
324.00,0.369
325.00,0.362
326.00,0.356
327.00,0.349
328.00,0.343
329.00,0.336
330.00,0.329
331.00,0.322
332.00,0.315
333.00,0.309
334.00,0.301
335.00,0.294
336.00,0.288
337.00,0.282
338.00,0.275
339.00,0.268
340.00,0.262
341.00,0.255
342.00,0.248
343.00,0.242
344.00,0.236
345.00,0.230
346.00,0.224
347.00,0.219
348.00,0.214
349.00,0.208
350.00,0.203
351.00,0.199
352.00,0.194
353.00,0.189
354.00,0.185
355.00,0.180
356.00,0.176
357.00,0.173
358.00,0.168
359.00,0.165
360.00,0.161
361.00,0.158
362.00,0.155
363.00,0.152
364.00,0.149
365.00,0.146
366.00,0.143
367.00,0.140
368.00,0.138
369.00,0.135
370.00,0.133
371.00,0.130
372.00,0.128
373.00,0.126
374.00,0.124
375.00,0.122
376.00,0.120
377.00,0.118
378.00,0.116
379.00,0.114
380.00,0.112
381.00,0.110
382.00,0.108
383.00,0.107
384.00,0.105
385.00,0.103
386.00,0.102
387.00,0.101
388.00,0.099
389.00,0.098
390.00,0.096
391.00,0.095
392.00,0.094
393.00,0.093
394.00,0.092
395.00,0.090
396.00,0.089
397.00,0.088
398.00,0.087
399.00,0.087
400.00,0.086
401.00,0.085
402.00,0.084
403.00,0.083
404.00,0.082
405.00,0.082
406.00,0.081
407.00,0.080
408.00,0.079
409.00,0.079
410.00,0.078
411.00,0.077
412.00,0.077
413.00,0.076
414.00,0.076
415.00,0.075
416.00,0.075
417.00,0.074
418.00,0.074
419.00,0.073
420.00,0.073
421.00,0.072
422.00,0.072
423.00,0.072
424.00,0.071
425.00,0.071
426.00,0.070
427.00,0.070
428.00,0.070
429.00,0.069
430.00,0.069
431.00,0.069
432.00,0.068
433.00,0.068
434.00,0.068
435.00,0.067
436.00,0.067
437.00,0.067
438.00,0.066
439.00,0.066
440.00,0.066
441.00,0.065
442.00,0.065
443.00,0.065
444.00,0.065
445.00,0.064
446.00,0.064
447.00,0.064
448.00,0.064
449.00,0.063
450.00,0.063
451.00,0.063
452.00,0.063
453.00,0.062
454.00,0.062
455.00,0.062
456.00,0.062
457.00,0.061
458.00,0.061
459.00,0.061
460.00,0.061
461.00,0.061
462.00,0.060
463.00,0.060
464.00,0.060
465.00,0.060
466.00,0.059
467.00,0.059
468.00,0.059
469.00,0.059
470.00,0.059
471.00,0.058
472.00,0.058
473.00,0.058
474.00,0.058
475.00,0.058
476.00,0.057
477.00,0.057
478.00,0.057
479.00,0.057
480.00,0.057
481.00,0.056
482.00,0.056
483.00,0.056
484.00,0.056
485.00,0.056
486.00,0.056
487.00,0.055
488.00,0.055
489.00,0.055
490.00,0.055
491.00,0.055
492.00,0.054
493.00,0.054
494.00,0.054
495.00,0.054
496.00,0.054
497.00,0.054
498.00,0.053
499.00,0.053
500.00,0.053
501.00,0.053
502.00,0.053
503.00,0.053
504.00,0.053
505.00,0.053
506.00,0.052
507.00,0.052
508.00,0.052
509.00,0.052
510.00,0.052
511.00,0.052
512.00,0.052
513.00,0.052
514.00,0.051
515.00,0.051
516.00,0.051
517.00,0.051
518.00,0.051
519.00,0.051
520.00,0.051
521.00,0.051
522.00,0.051
523.00,0.050
524.00,0.050
525.00,0.050
526.00,0.050
527.00,0.050
528.00,0.050
529.00,0.050
530.00,0.050
531.00,0.050
532.00,0.049
533.00,0.049
534.00,0.049
535.00,0.049
536.00,0.049
537.00,0.049
538.00,0.049
539.00,0.049
540.00,0.049
541.00,0.049
542.00,0.049
543.00,0.049
544.00,0.049
545.00,0.048
546.00,0.048
547.00,0.048
548.00,0.048
549.00,0.048
550.00,0.048
551.00,0.048
552.00,0.048
553.00,0.048
554.00,0.048
555.00,0.048
556.00,0.048
557.00,0.047
558.00,0.047
559.00,0.047
560.00,0.047
561.00,0.047
562.00,0.047
563.00,0.047
564.00,0.047
565.00,0.047
566.00,0.047
567.00,0.047
568.00,0.047
569.00,0.047
570.00,0.047
571.00,0.047
572.00,0.047
573.00,0.047
574.00,0.046
575.00,0.046
576.00,0.046
577.00,0.046
578.00,0.046
579.00,0.046
580.00,0.046
581.00,0.046
582.00,0.046
583.00,0.046
584.00,0.046
585.00,0.046
586.00,0.046
587.00,0.046
588.00,0.046
589.00,0.046
590.00,0.046
591.00,0.046
592.00,0.046
593.00,0.046
594.00,0.046
595.00,0.046
596.00,0.046
597.00,0.046
598.00,0.046
599.00,0.046
600.00,0.046
601.00,0.046
602.00,0.046
603.00,0.046
604.00,0.046
605.00,0.046
606.00,0.046
607.00,0.045
608.00,0.045
609.00,0.045
610.00,0.045
611.00,0.045
612.00,0.045
613.00,0.045
614.00,0.045
615.00,0.045
616.00,0.045
617.00,0.045
618.00,0.045
619.00,0.045
620.00,0.045
621.00,0.045
622.00,0.045
623.00,0.045
624.00,0.045
625.00,0.045
626.00,0.045
627.00,0.045
628.00,0.045
629.00,0.045
630.00,0.045
631.00,0.045
632.00,0.045
633.00,0.045
634.00,0.045
635.00,0.045
636.00,0.045
637.00,0.044
638.00,0.044
639.00,0.044
640.00,0.044
641.00,0.044
642.00,0.044
643.00,0.044
644.00,0.044
645.00,0.044
646.00,0.044
647.00,0.044
648.00,0.044
649.00,0.044
650.00,0.044
651.00,0.044
652.00,0.044
653.00,0.044
654.00,0.044
655.00,0.044
656.00,0.044
657.00,0.044
658.00,0.044
659.00,0.044
660.00,0.044
661.00,0.044
662.00,0.044
663.00,0.044
664.00,0.044
665.00,0.044
666.00,0.044
667.00,0.044
668.00,0.044
669.00,0.044
670.00,0.044
671.00,0.044
672.00,0.044
673.00,0.044
674.00,0.044
675.00,0.044
676.00,0.044
677.00,0.044
678.00,0.044
679.00,0.044
680.00,0.044
681.00,0.044
682.00,0.044
683.00,0.044
684.00,0.044
685.00,0.044
686.00,0.044
687.00,0.044
688.00,0.044
689.00,0.044
690.00,0.044
691.00,0.044
692.00,0.044
693.00,0.044
694.00,0.044
695.00,0.044
696.00,0.044
697.00,0.044
698.00,0.044
699.00,0.044
700.00,0.044
701.00,0.044
702.00,0.044
703.00,0.044
704.00,0.044
705.00,0.044
706.00,0.044
707.00,0.044
708.00,0.044
709.00,0.045
710.00,0.045
711.00,0.045
712.00,0.045
713.00,0.045
714.00,0.045
715.00,0.045
716.00,0.045
717.00,0.045
718.00,0.046
719.00,0.046
720.00,0.046
721.00,0.046
722.00,0.046
723.00,0.047
724.00,0.047
725.00,0.047
726.00,0.047
727.00,0.048
728.00,0.048
729.00,0.048
730.00,0.049
731.00,0.050
732.00,0.050
733.00,0.050
734.00,0.051
735.00,0.051
736.00,0.051
737.00,0.052
738.00,0.052
739.00,0.052
740.00,0.052
741.00,0.052
742.00,0.052
743.00,0.052
744.00,0.052
745.00,0.052
746.00,0.052
747.00,0.052
748.00,0.052
749.00,0.052
750.00,0.052
751.00,0.052
752.00,0.052
753.00,0.052
754.00,0.052
755.00,0.052
756.00,0.052
757.00,0.052
758.00,0.052
759.00,0.052
760.00,0.052
761.00,0.052
762.00,0.052
763.00,0.052
764.00,0.052
765.00,0.052
766.00,0.052
767.00,0.052
768.00,0.052
769.00,0.052
770.00,0.052
771.00,0.052
772.00,0.051
773.00,0.051
774.00,0.051
775.00,0.051
776.00,0.051
777.00,0.051
778.00,0.051
779.00,0.051
780.00,0.051
781.00,0.051
782.00,0.051
783.00,0.051
784.00,0.051
785.00,0.051
786.00,0.050
787.00,0.050
788.00,0.050
789.00,0.050
790.00,0.050
791.00,0.050
792.00,0.050
793.00,0.050
794.00,0.049
795.00,0.049
796.00,0.049
797.00,0.049
798.00,0.049
799.00,0.049
800.00,0.049
801.00,0.049
802.00,0.049
803.00,0.049
804.00,0.048
805.00,0.049
806.00,0.048
807.00,0.048
808.00,0.048
809.00,0.048
810.00,0.048
811.00,0.048
812.00,0.048
813.00,0.048
814.00,0.049
815.00,0.049
816.00,0.049
817.00,0.049
818.00,0.049
819.00,0.049
820.00,0.049
821.00,0.049
822.00,0.049
823.00,0.050
824.00,0.050
825.00,0.050
826.00,0.051
827.00,0.051
828.00,0.052
829.00,0.052
830.00,0.053
831.00,0.053
832.00,0.054
833.00,0.054
834.00,0.054
835.00,0.055
836.00,0.055
837.00,0.055
838.00,0.055
839.00,0.055
840.00,0.055
841.00,0.055
842.00,0.056
843.00,0.056
844.00,0.056
845.00,0.056
846.00,0.056
847.00,0.056
848.00,0.056
849.00,0.056
850.00,0.057
851.00,0.057
852.00,0.057
853.00,0.057
854.00,0.057
855.00,0.057
856.00,0.057
857.00,0.057
858.00,0.057
859.00,0.057
860.00,0.057
861.00,0.058
862.00,0.058
863.00,0.058
864.00,0.058
865.00,0.058
866.00,0.058
867.00,0.058
868.00,0.058
869.00,0.059
870.00,0.059
871.00,0.059
872.00,0.059
873.00,0.059
874.00,0.059
875.00,0.060
876.00,0.060
877.00,0.060
878.00,0.060
879.00,0.060
880.00,0.061
881.00,0.061
882.00,0.061
883.00,0.061
884.00,0.061
885.00,0.062
886.00,0.062
887.00,0.062
888.00,0.062
889.00,0.063
890.00,0.063
891.00,0.063
892.00,0.063
893.00,0.064
894.00,0.064
895.00,0.064
896.00,0.064
897.00,0.064
898.00,0.065
899.00,0.065
900.00,0.065
