"MillesIlesIPAAmericaine50x - RawData"
"Wavelength nm.","Abs."
190.00,2.921
191.00,3.073
192.00,2.985
193.00,3.281
194.00,3.176
195.00,3.204
196.00,3.275
197.00,3.251
198.00,3.308
199.00,3.394
200.00,3.494
201.00,3.524
202.00,3.428
203.00,3.494
204.00,3.451
205.00,3.427
206.00,3.384
207.00,3.323
208.00,3.203
209.00,3.121
210.00,3.022
211.00,2.943
212.00,2.838
213.00,2.720
214.00,2.600
215.00,2.492
216.00,2.384
217.00,2.274
218.00,2.159
219.00,2.054
220.00,1.951
221.00,1.854
222.00,1.767
223.00,1.679
224.00,1.591
225.00,1.510
226.00,1.431
227.00,1.352
228.00,1.276
229.00,1.209
230.00,1.145
231.00,1.086
232.00,1.033
233.00,0.986
234.00,0.946
235.00,0.911
236.00,0.881
237.00,0.856
238.00,0.836
239.00,0.819
240.00,0.806
241.00,0.796
242.00,0.789
243.00,0.785
244.00,0.782
245.00,0.781
246.00,0.781
247.00,0.782
248.00,0.785
249.00,0.788
250.00,0.792
251.00,0.796
252.00,0.800
253.00,0.805
254.00,0.810
255.00,0.814
256.00,0.818
257.00,0.821
258.00,0.822
259.00,0.822
260.00,0.821
261.00,0.821
262.00,0.820
263.00,0.819
264.00,0.818
265.00,0.816
266.00,0.814
267.00,0.811
268.00,0.807
269.00,0.801
270.00,0.795
271.00,0.788
272.00,0.780
273.00,0.771
274.00,0.762
275.00,0.751
276.00,0.740
277.00,0.728
278.00,0.715
279.00,0.701
280.00,0.687
281.00,0.672
282.00,0.657
283.00,0.640
284.00,0.622
285.00,0.604
286.00,0.587
287.00,0.569
288.00,0.551
289.00,0.534
290.00,0.515
291.00,0.497
292.00,0.480
293.00,0.466
294.00,0.454
295.00,0.443
296.00,0.433
297.00,0.424
298.00,0.416
299.00,0.408
300.00,0.401
301.00,0.394
302.00,0.389
303.00,0.384
304.00,0.379
305.00,0.374
306.00,0.370
307.00,0.366
308.00,0.361
309.00,0.358
310.00,0.354
311.00,0.350
312.00,0.347
313.00,0.343
314.00,0.340
315.00,0.337
316.00,0.333
317.00,0.331
318.00,0.327
319.00,0.323
320.00,0.320
321.00,0.316
322.00,0.312
323.00,0.308
324.00,0.304
325.00,0.299
326.00,0.294
327.00,0.291
328.00,0.286
329.00,0.281
330.00,0.276
331.00,0.270
332.00,0.266
333.00,0.260
334.00,0.255
335.00,0.250
336.00,0.245
337.00,0.240
338.00,0.235
339.00,0.230
340.00,0.225
341.00,0.219
342.00,0.214
343.00,0.209
344.00,0.205
345.00,0.200
346.00,0.196
347.00,0.192
348.00,0.187
349.00,0.183
350.00,0.179
351.00,0.175
352.00,0.172
353.00,0.168
354.00,0.164
355.00,0.161
356.00,0.158
357.00,0.155
358.00,0.152
359.00,0.149
360.00,0.146
361.00,0.144
362.00,0.141
363.00,0.139
364.00,0.137
365.00,0.134
366.00,0.132
367.00,0.130
368.00,0.128
369.00,0.126
370.00,0.124
371.00,0.123
372.00,0.121
373.00,0.119
374.00,0.117
375.00,0.116
376.00,0.114
377.00,0.112
378.00,0.111
379.00,0.110
380.00,0.108
381.00,0.107
382.00,0.105
383.00,0.104
384.00,0.103
385.00,0.102
386.00,0.101
387.00,0.099
388.00,0.098
389.00,0.097
390.00,0.096
391.00,0.095
392.00,0.094
393.00,0.093
394.00,0.092
395.00,0.091
396.00,0.090
397.00,0.090
398.00,0.089
399.00,0.088
400.00,0.087
401.00,0.087
402.00,0.086
403.00,0.085
404.00,0.084
405.00,0.084
406.00,0.083
407.00,0.083
408.00,0.082
409.00,0.082
410.00,0.081
411.00,0.081
412.00,0.080
413.00,0.080
414.00,0.079
415.00,0.079
416.00,0.078
417.00,0.078
418.00,0.078
419.00,0.077
420.00,0.077
421.00,0.077
422.00,0.076
423.00,0.076
424.00,0.076
425.00,0.075
426.00,0.075
427.00,0.075
428.00,0.074
429.00,0.074
430.00,0.074
431.00,0.074
432.00,0.073
433.00,0.073
434.00,0.073
435.00,0.072
436.00,0.072
437.00,0.072
438.00,0.072
439.00,0.071
440.00,0.071
441.00,0.071
442.00,0.071
443.00,0.071
444.00,0.070
445.00,0.070
446.00,0.070
447.00,0.070
448.00,0.070
449.00,0.069
450.00,0.069
451.00,0.069
452.00,0.069
453.00,0.069
454.00,0.069
455.00,0.068
456.00,0.068
457.00,0.068
458.00,0.068
459.00,0.068
460.00,0.067
461.00,0.067
462.00,0.067
463.00,0.067
464.00,0.067
465.00,0.067
466.00,0.067
467.00,0.066
468.00,0.066
469.00,0.066
470.00,0.066
471.00,0.066
472.00,0.066
473.00,0.066
474.00,0.065
475.00,0.065
476.00,0.065
477.00,0.065
478.00,0.065
479.00,0.065
480.00,0.064
481.00,0.064
482.00,0.064
483.00,0.064
484.00,0.064
485.00,0.064
486.00,0.064
487.00,0.064
488.00,0.063
489.00,0.063
490.00,0.063
491.00,0.063
492.00,0.063
493.00,0.063
494.00,0.063
495.00,0.063
496.00,0.063
497.00,0.062
498.00,0.062
499.00,0.062
500.00,0.062
501.00,0.062
502.00,0.062
503.00,0.062
504.00,0.062
505.00,0.062
506.00,0.062
507.00,0.061
508.00,0.061
509.00,0.061
510.00,0.061
511.00,0.061
512.00,0.061
513.00,0.061
514.00,0.061
515.00,0.061
516.00,0.061
517.00,0.061
518.00,0.060
519.00,0.060
520.00,0.060
521.00,0.060
522.00,0.060
523.00,0.060
524.00,0.060
525.00,0.060
526.00,0.060
527.00,0.060
528.00,0.060
529.00,0.060
530.00,0.059
531.00,0.059
532.00,0.059
533.00,0.059
534.00,0.059
535.00,0.059
536.00,0.059
537.00,0.059
538.00,0.059
539.00,0.059
540.00,0.059
541.00,0.059
542.00,0.059
543.00,0.058
544.00,0.058
545.00,0.058
546.00,0.058
547.00,0.058
548.00,0.058
549.00,0.058
550.00,0.058
551.00,0.058
552.00,0.058
553.00,0.058
554.00,0.058
555.00,0.058
556.00,0.058
557.00,0.057
558.00,0.057
559.00,0.057
560.00,0.057
561.00,0.057
562.00,0.057
563.00,0.057
564.00,0.057
565.00,0.057
566.00,0.057
567.00,0.057
568.00,0.057
569.00,0.057
570.00,0.057
571.00,0.057
572.00,0.057
573.00,0.057
574.00,0.057
575.00,0.057
576.00,0.057
577.00,0.057
578.00,0.057
579.00,0.056
580.00,0.056
581.00,0.056
582.00,0.056
583.00,0.056
584.00,0.056
585.00,0.056
586.00,0.056
587.00,0.056
588.00,0.056
589.00,0.056
590.00,0.056
591.00,0.056
592.00,0.056
593.00,0.056
594.00,0.056
595.00,0.056
596.00,0.056
597.00,0.056
598.00,0.056
599.00,0.056
600.00,0.056
601.00,0.056
602.00,0.056
603.00,0.056
604.00,0.056
605.00,0.056
606.00,0.056
607.00,0.056
608.00,0.056
609.00,0.056
610.00,0.056
611.00,0.056
612.00,0.056
613.00,0.056
614.00,0.056
615.00,0.055
616.00,0.055
617.00,0.055
618.00,0.055
619.00,0.055
620.00,0.055
621.00,0.055
622.00,0.055
623.00,0.055
624.00,0.055
625.00,0.055
626.00,0.055
627.00,0.055
628.00,0.055
629.00,0.055
630.00,0.055
631.00,0.055
632.00,0.055
633.00,0.055
634.00,0.055
635.00,0.055
636.00,0.055
637.00,0.055
638.00,0.055
639.00,0.055
640.00,0.055
641.00,0.055
642.00,0.055
643.00,0.055
644.00,0.055
645.00,0.055
646.00,0.055
647.00,0.055
648.00,0.055
649.00,0.055
650.00,0.055
651.00,0.055
652.00,0.055
653.00,0.055
654.00,0.055
655.00,0.055
656.00,0.055
657.00,0.055
658.00,0.055
659.00,0.055
660.00,0.054
661.00,0.054
662.00,0.055
663.00,0.054
664.00,0.054
665.00,0.054
666.00,0.054
667.00,0.054
668.00,0.054
669.00,0.054
670.00,0.054
671.00,0.054
672.00,0.054
673.00,0.054
674.00,0.054
675.00,0.054
676.00,0.054
677.00,0.054
678.00,0.054
679.00,0.054
680.00,0.054
681.00,0.054
682.00,0.054
683.00,0.054
684.00,0.054
685.00,0.054
686.00,0.054
687.00,0.054
688.00,0.054
689.00,0.054
690.00,0.054
691.00,0.054
692.00,0.054
693.00,0.054
694.00,0.054
695.00,0.054
696.00,0.054
697.00,0.054
698.00,0.054
699.00,0.054
700.00,0.054
701.00,0.054
702.00,0.054
703.00,0.054
704.00,0.054
705.00,0.054
706.00,0.054
707.00,0.054
708.00,0.055
709.00,0.055
710.00,0.055
711.00,0.055
712.00,0.055
713.00,0.055
714.00,0.055
715.00,0.055
716.00,0.055
717.00,0.056
718.00,0.056
719.00,0.056
720.00,0.056
721.00,0.056
722.00,0.057
723.00,0.057
724.00,0.057
725.00,0.057
726.00,0.058
727.00,0.058
728.00,0.058
729.00,0.059
730.00,0.059
731.00,0.060
732.00,0.060
733.00,0.061
734.00,0.061
735.00,0.061
736.00,0.062
737.00,0.062
738.00,0.062
739.00,0.062
740.00,0.062
741.00,0.062
742.00,0.063
743.00,0.063
744.00,0.063
745.00,0.062
746.00,0.062
747.00,0.062
748.00,0.062
749.00,0.062
750.00,0.062
751.00,0.062
752.00,0.062
753.00,0.062
754.00,0.062
755.00,0.062
756.00,0.062
757.00,0.062
758.00,0.062
759.00,0.062
760.00,0.062
761.00,0.062
762.00,0.062
763.00,0.062
764.00,0.062
765.00,0.062
766.00,0.061
767.00,0.061
768.00,0.061
769.00,0.061
770.00,0.061
771.00,0.061
772.00,0.061
773.00,0.061
774.00,0.061
775.00,0.061
776.00,0.061
777.00,0.061
778.00,0.061
779.00,0.060
780.00,0.060
781.00,0.060
782.00,0.060
783.00,0.060
784.00,0.060
785.00,0.060
786.00,0.060
787.00,0.059
788.00,0.059
789.00,0.059
790.00,0.059
791.00,0.059
792.00,0.059
793.00,0.059
794.00,0.059
795.00,0.059
796.00,0.058
797.00,0.058
798.00,0.058
799.00,0.058
800.00,0.058
801.00,0.058
802.00,0.058
803.00,0.058
804.00,0.058
805.00,0.058
806.00,0.058
807.00,0.058
808.00,0.058
809.00,0.058
810.00,0.058
811.00,0.058
812.00,0.058
813.00,0.058
814.00,0.058
815.00,0.058
816.00,0.058
817.00,0.058
818.00,0.058
819.00,0.058
820.00,0.058
821.00,0.058
822.00,0.059
823.00,0.059
824.00,0.059
825.00,0.060
826.00,0.060
827.00,0.060
828.00,0.061
829.00,0.062
830.00,0.062
831.00,0.063
832.00,0.063
833.00,0.064
834.00,0.064
835.00,0.064
836.00,0.064
837.00,0.064
838.00,0.065
839.00,0.065
840.00,0.065
841.00,0.065
842.00,0.065
843.00,0.065
844.00,0.065
845.00,0.065
846.00,0.065
847.00,0.066
848.00,0.066
849.00,0.066
850.00,0.066
851.00,0.066
852.00,0.066
853.00,0.066
854.00,0.066
855.00,0.066
856.00,0.066
857.00,0.066
858.00,0.066
859.00,0.066
860.00,0.067
861.00,0.067
862.00,0.067
863.00,0.067
864.00,0.067
865.00,0.067
866.00,0.067
867.00,0.067
868.00,0.067
869.00,0.067
870.00,0.068
871.00,0.068
872.00,0.068
873.00,0.068
874.00,0.068
875.00,0.068
876.00,0.069
877.00,0.069
878.00,0.069
879.00,0.069
880.00,0.069
881.00,0.070
882.00,0.070
883.00,0.070
884.00,0.070
885.00,0.071
886.00,0.071
887.00,0.071
888.00,0.071
889.00,0.072
890.00,0.072
891.00,0.072
892.00,0.072
893.00,0.072
894.00,0.073
895.00,0.073
896.00,0.073
897.00,0.073
898.00,0.074
899.00,0.074
900.00,0.074
