"LagerBlondeCarling50x - RawData"
"Wavelength nm.","Abs."
190.00,2.907
191.00,3.021
192.00,3.033
193.00,3.129
194.00,3.251
195.00,3.043
196.00,3.183
197.00,3.063
198.00,2.930
199.00,2.871
200.00,2.713
201.00,2.572
202.00,2.435
203.00,2.316
204.00,2.176
205.00,2.056
206.00,1.944
207.00,1.840
208.00,1.743
209.00,1.656
210.00,1.575
211.00,1.501
212.00,1.431
213.00,1.363
214.00,1.300
215.00,1.242
216.00,1.185
217.00,1.131
218.00,1.078
219.00,1.025
220.00,0.975
221.00,0.929
222.00,0.884
223.00,0.840
224.00,0.795
225.00,0.752
226.00,0.708
227.00,0.663
228.00,0.619
229.00,0.578
230.00,0.540
231.00,0.506
232.00,0.475
233.00,0.447
234.00,0.423
235.00,0.402
236.00,0.385
237.00,0.370
238.00,0.358
239.00,0.348
240.00,0.339
241.00,0.333
242.00,0.328
243.00,0.325
244.00,0.322
245.00,0.321
246.00,0.320
247.00,0.319
248.00,0.319
249.00,0.320
250.00,0.321
251.00,0.322
252.00,0.324
253.00,0.325
254.00,0.327
255.00,0.329
256.00,0.331
257.00,0.333
258.00,0.334
259.00,0.335
260.00,0.336
261.00,0.338
262.00,0.339
263.00,0.341
264.00,0.342
265.00,0.343
266.00,0.343
267.00,0.344
268.00,0.344
269.00,0.343
270.00,0.342
271.00,0.341
272.00,0.339
273.00,0.337
274.00,0.335
275.00,0.331
276.00,0.327
277.00,0.322
278.00,0.317
279.00,0.311
280.00,0.305
281.00,0.299
282.00,0.292
283.00,0.284
284.00,0.276
285.00,0.268
286.00,0.260
287.00,0.253
288.00,0.245
289.00,0.237
290.00,0.229
291.00,0.221
292.00,0.214
293.00,0.208
294.00,0.203
295.00,0.198
296.00,0.194
297.00,0.190
298.00,0.186
299.00,0.183
300.00,0.180
301.00,0.177
302.00,0.175
303.00,0.172
304.00,0.170
305.00,0.168
306.00,0.166
307.00,0.164
308.00,0.162
309.00,0.161
310.00,0.159
311.00,0.157
312.00,0.156
313.00,0.155
314.00,0.153
315.00,0.151
316.00,0.150
317.00,0.149
318.00,0.147
319.00,0.145
320.00,0.144
321.00,0.142
322.00,0.140
323.00,0.138
324.00,0.136
325.00,0.134
326.00,0.132
327.00,0.130
328.00,0.128
329.00,0.125
330.00,0.123
331.00,0.120
332.00,0.118
333.00,0.115
334.00,0.113
335.00,0.110
336.00,0.108
337.00,0.105
338.00,0.103
339.00,0.101
340.00,0.099
341.00,0.094
342.00,0.092
343.00,0.090
344.00,0.088
345.00,0.086
346.00,0.084
347.00,0.082
348.00,0.080
349.00,0.078
350.00,0.076
351.00,0.074
352.00,0.073
353.00,0.071
354.00,0.070
355.00,0.068
356.00,0.067
357.00,0.066
358.00,0.064
359.00,0.063
360.00,0.062
361.00,0.061
362.00,0.060
363.00,0.059
364.00,0.059
365.00,0.058
366.00,0.057
367.00,0.056
368.00,0.055
369.00,0.055
370.00,0.054
371.00,0.053
372.00,0.053
373.00,0.052
374.00,0.052
375.00,0.051
376.00,0.051
377.00,0.050
378.00,0.050
379.00,0.049
380.00,0.049
381.00,0.048
382.00,0.048
383.00,0.048
384.00,0.047
385.00,0.047
386.00,0.047
387.00,0.046
388.00,0.046
389.00,0.046
390.00,0.045
391.00,0.045
392.00,0.045
393.00,0.045
394.00,0.044
395.00,0.044
396.00,0.044
397.00,0.044
398.00,0.044
399.00,0.043
400.00,0.043
401.00,0.043
402.00,0.043
403.00,0.043
404.00,0.042
405.00,0.042
406.00,0.042
407.00,0.042
408.00,0.042
409.00,0.042
410.00,0.041
411.00,0.041
412.00,0.041
413.00,0.041
414.00,0.041
415.00,0.041
416.00,0.041
417.00,0.041
418.00,0.041
419.00,0.041
420.00,0.040
421.00,0.040
422.00,0.040
423.00,0.040
424.00,0.040
425.00,0.040
426.00,0.040
427.00,0.040
428.00,0.040
429.00,0.040
430.00,0.040
431.00,0.039
432.00,0.039
433.00,0.039
434.00,0.039
435.00,0.039
436.00,0.039
437.00,0.039
438.00,0.039
439.00,0.039
440.00,0.039
441.00,0.039
442.00,0.039
443.00,0.039
444.00,0.039
445.00,0.038
446.00,0.038
447.00,0.038
448.00,0.038
449.00,0.038
450.00,0.038
451.00,0.038
452.00,0.038
453.00,0.038
454.00,0.038
455.00,0.038
456.00,0.038
457.00,0.038
458.00,0.038
459.00,0.038
460.00,0.038
461.00,0.038
462.00,0.037
463.00,0.037
464.00,0.037
465.00,0.037
466.00,0.037
467.00,0.037
468.00,0.037
469.00,0.037
470.00,0.037
471.00,0.037
472.00,0.037
473.00,0.037
474.00,0.037
475.00,0.037
476.00,0.037
477.00,0.037
478.00,0.037
479.00,0.037
480.00,0.037
481.00,0.037
482.00,0.037
483.00,0.036
484.00,0.036
485.00,0.036
486.00,0.036
487.00,0.036
488.00,0.036
489.00,0.036
490.00,0.036
491.00,0.036
492.00,0.036
493.00,0.036
494.00,0.036
495.00,0.036
496.00,0.036
497.00,0.036
498.00,0.036
499.00,0.036
500.00,0.036
501.00,0.036
502.00,0.036
503.00,0.036
504.00,0.036
505.00,0.036
506.00,0.036
507.00,0.036
508.00,0.036
509.00,0.036
510.00,0.036
511.00,0.036
512.00,0.036
513.00,0.036
514.00,0.035
515.00,0.035
516.00,0.035
517.00,0.035
518.00,0.035
519.00,0.035
520.00,0.035
521.00,0.035
522.00,0.035
523.00,0.035
524.00,0.035
525.00,0.035
526.00,0.035
527.00,0.035
528.00,0.035
529.00,0.035
530.00,0.035
531.00,0.035
532.00,0.035
533.00,0.035
534.00,0.035
535.00,0.035
536.00,0.035
537.00,0.035
538.00,0.035
539.00,0.035
540.00,0.035
541.00,0.035
542.00,0.035
543.00,0.035
544.00,0.035
545.00,0.035
546.00,0.035
547.00,0.035
548.00,0.035
549.00,0.035
550.00,0.035
551.00,0.035
552.00,0.035
553.00,0.035
554.00,0.035
555.00,0.035
556.00,0.035
557.00,0.035
558.00,0.035
559.00,0.035
560.00,0.035
561.00,0.035
562.00,0.035
563.00,0.035
564.00,0.035
565.00,0.035
566.00,0.035
567.00,0.035
568.00,0.035
569.00,0.035
570.00,0.035
571.00,0.035
572.00,0.035
573.00,0.035
574.00,0.035
575.00,0.035
576.00,0.035
577.00,0.035
578.00,0.035
579.00,0.035
580.00,0.035
581.00,0.035
582.00,0.035
583.00,0.035
584.00,0.035
585.00,0.035
586.00,0.035
587.00,0.035
588.00,0.035
589.00,0.035
590.00,0.035
591.00,0.035
592.00,0.035
593.00,0.035
594.00,0.035
595.00,0.035
596.00,0.035
597.00,0.035
598.00,0.035
599.00,0.035
600.00,0.035
601.00,0.035
602.00,0.035
603.00,0.035
604.00,0.035
605.00,0.035
606.00,0.035
607.00,0.035
608.00,0.035
609.00,0.035
610.00,0.035
611.00,0.035
612.00,0.035
613.00,0.035
614.00,0.035
615.00,0.035
616.00,0.035
617.00,0.035
618.00,0.035
619.00,0.035
620.00,0.035
621.00,0.035
622.00,0.035
623.00,0.035
624.00,0.035
625.00,0.035
626.00,0.035
627.00,0.035
628.00,0.035
629.00,0.035
630.00,0.035
631.00,0.035
632.00,0.035
633.00,0.035
634.00,0.035
635.00,0.035
636.00,0.035
637.00,0.035
638.00,0.035
639.00,0.035
640.00,0.035
641.00,0.035
642.00,0.035
643.00,0.035
644.00,0.035
645.00,0.035
646.00,0.035
647.00,0.035
648.00,0.035
649.00,0.035
650.00,0.035
651.00,0.035
652.00,0.035
653.00,0.035
654.00,0.035
655.00,0.035
656.00,0.035
657.00,0.035
658.00,0.035
659.00,0.035
660.00,0.035
661.00,0.035
662.00,0.035
663.00,0.035
664.00,0.035
665.00,0.035
666.00,0.035
667.00,0.035
668.00,0.035
669.00,0.035
670.00,0.035
671.00,0.035
672.00,0.035
673.00,0.035
674.00,0.035
675.00,0.035
676.00,0.035
677.00,0.035
678.00,0.035
679.00,0.035
680.00,0.035
681.00,0.035
682.00,0.035
683.00,0.035
684.00,0.035
685.00,0.035
686.00,0.035
687.00,0.035
688.00,0.035
689.00,0.035
690.00,0.035
691.00,0.035
692.00,0.035
693.00,0.036
694.00,0.036
695.00,0.036
696.00,0.036
697.00,0.036
698.00,0.036
699.00,0.036
700.00,0.036
701.00,0.036
702.00,0.036
703.00,0.036
704.00,0.036
705.00,0.036
706.00,0.036
707.00,0.036
708.00,0.036
709.00,0.036
710.00,0.037
711.00,0.037
712.00,0.037
713.00,0.037
714.00,0.037
715.00,0.037
716.00,0.037
717.00,0.038
718.00,0.038
719.00,0.038
720.00,0.038
721.00,0.039
722.00,0.039
723.00,0.039
724.00,0.039
725.00,0.040
726.00,0.040
727.00,0.040
728.00,0.041
729.00,0.041
730.00,0.042
731.00,0.042
732.00,0.043
733.00,0.043
734.00,0.043
735.00,0.044
736.00,0.044
737.00,0.044
738.00,0.045
739.00,0.045
740.00,0.045
741.00,0.045
742.00,0.045
743.00,0.045
744.00,0.045
745.00,0.045
746.00,0.045
747.00,0.045
748.00,0.045
749.00,0.045
750.00,0.045
751.00,0.045
752.00,0.045
753.00,0.045
754.00,0.045
755.00,0.045
756.00,0.045
757.00,0.045
758.00,0.045
759.00,0.045
760.00,0.045
761.00,0.045
762.00,0.045
763.00,0.045
764.00,0.045
765.00,0.045
766.00,0.045
767.00,0.045
768.00,0.045
769.00,0.045
770.00,0.045
771.00,0.045
772.00,0.045
773.00,0.044
774.00,0.044
775.00,0.044
776.00,0.044
777.00,0.044
778.00,0.044
779.00,0.044
780.00,0.044
781.00,0.044
782.00,0.044
783.00,0.044
784.00,0.044
785.00,0.044
786.00,0.043
787.00,0.043
788.00,0.043
789.00,0.043
790.00,0.043
791.00,0.043
792.00,0.043
793.00,0.043
794.00,0.043
795.00,0.042
796.00,0.042
797.00,0.042
798.00,0.042
799.00,0.042
800.00,0.042
801.00,0.042
802.00,0.042
803.00,0.042
804.00,0.042
805.00,0.042
806.00,0.042
807.00,0.042
808.00,0.042
809.00,0.042
810.00,0.042
811.00,0.042
812.00,0.042
813.00,0.042
814.00,0.042
815.00,0.042
816.00,0.042
817.00,0.042
818.00,0.042
819.00,0.042
820.00,0.043
821.00,0.043
822.00,0.043
823.00,0.043
824.00,0.044
825.00,0.044
826.00,0.044
827.00,0.045
828.00,0.045
829.00,0.046
830.00,0.047
831.00,0.047
832.00,0.048
833.00,0.048
834.00,0.048
835.00,0.049
836.00,0.049
837.00,0.049
838.00,0.049
839.00,0.049
840.00,0.049
841.00,0.050
842.00,0.050
843.00,0.050
844.00,0.050
845.00,0.050
846.00,0.050
847.00,0.050
848.00,0.050
849.00,0.051
850.00,0.051
851.00,0.051
852.00,0.051
853.00,0.051
854.00,0.051
855.00,0.051
856.00,0.051
857.00,0.052
858.00,0.052
859.00,0.052
860.00,0.052
861.00,0.052
862.00,0.052
863.00,0.052
864.00,0.052
865.00,0.052
866.00,0.052
867.00,0.053
868.00,0.053
869.00,0.053
870.00,0.053
871.00,0.053
872.00,0.053
873.00,0.054
874.00,0.054
875.00,0.054
876.00,0.054
877.00,0.054
878.00,0.055
879.00,0.055
880.00,0.055
881.00,0.055
882.00,0.056
883.00,0.056
884.00,0.056
885.00,0.056
886.00,0.057
887.00,0.057
888.00,0.057
889.00,0.057
890.00,0.058
891.00,0.058
892.00,0.058
893.00,0.058
894.00,0.059
895.00,0.059
896.00,0.059
897.00,0.059
898.00,0.060
899.00,0.060
900.00,0.060
