"Blanche_Belge_MC_50x - RawData"
"Wavelength nm.","Abs."
190.00,3.186
191.00,3.561
192.00,3.535
193.00,3.738
194.00,3.628
195.00,3.753
196.00,3.776
197.00,3.686
198.00,3.808
199.00,3.761
200.00,3.793
201.00,3.741
202.00,3.881
203.00,3.858
204.00,3.803
205.00,3.792
206.00,3.771
207.00,3.654
208.00,3.706
209.00,3.448
210.00,3.386
211.00,3.227
212.00,3.074
213.00,2.945
214.00,2.841
215.00,2.704
216.00,2.577
217.00,2.464
218.00,2.355
219.00,2.245
220.00,2.132
221.00,2.031
222.00,1.928
223.00,1.832
224.00,1.736
225.00,1.640
226.00,1.546
227.00,1.448
228.00,1.353
229.00,1.264
230.00,1.177
231.00,1.096
232.00,1.022
233.00,0.954
234.00,0.894
235.00,0.841
236.00,0.794
237.00,0.755
238.00,0.724
239.00,0.698
240.00,0.678
241.00,0.662
242.00,0.652
243.00,0.644
244.00,0.638
245.00,0.635
246.00,0.633
247.00,0.632
248.00,0.632
249.00,0.633
250.00,0.635
251.00,0.638
252.00,0.641
253.00,0.644
254.00,0.647
255.00,0.651
256.00,0.656
257.00,0.660
258.00,0.663
259.00,0.666
260.00,0.670
261.00,0.673
262.00,0.677
263.00,0.682
264.00,0.686
265.00,0.690
266.00,0.694
267.00,0.697
268.00,0.699
269.00,0.701
270.00,0.702
271.00,0.702
272.00,0.702
273.00,0.701
274.00,0.698
275.00,0.695
276.00,0.690
277.00,0.684
278.00,0.676
279.00,0.667
280.00,0.658
281.00,0.648
282.00,0.637
283.00,0.624
284.00,0.609
285.00,0.593
286.00,0.577
287.00,0.562
288.00,0.546
289.00,0.530
290.00,0.512
291.00,0.494
292.00,0.477
293.00,0.462
294.00,0.449
295.00,0.437
296.00,0.426
297.00,0.416
298.00,0.406
299.00,0.396
300.00,0.388
301.00,0.380
302.00,0.373
303.00,0.366
304.00,0.360
305.00,0.355
306.00,0.350
307.00,0.345
308.00,0.341
309.00,0.337
310.00,0.333
311.00,0.330
312.00,0.327
313.00,0.324
314.00,0.321
315.00,0.318
316.00,0.316
317.00,0.313
318.00,0.310
319.00,0.307
320.00,0.304
321.00,0.301
322.00,0.297
323.00,0.294
324.00,0.290
325.00,0.286
326.00,0.283
327.00,0.279
328.00,0.274
329.00,0.270
330.00,0.265
331.00,0.261
332.00,0.256
333.00,0.251
334.00,0.246
335.00,0.241
336.00,0.236
337.00,0.231
338.00,0.226
339.00,0.221
340.00,0.216
341.00,0.210
342.00,0.204
343.00,0.199
344.00,0.194
345.00,0.189
346.00,0.185
347.00,0.180
348.00,0.175
349.00,0.171
350.00,0.166
351.00,0.162
352.00,0.158
353.00,0.154
354.00,0.150
355.00,0.146
356.00,0.142
357.00,0.138
358.00,0.135
359.00,0.131
360.00,0.128
361.00,0.125
362.00,0.122
363.00,0.119
364.00,0.117
365.00,0.114
366.00,0.112
367.00,0.109
368.00,0.107
369.00,0.105
370.00,0.103
371.00,0.101
372.00,0.099
373.00,0.098
374.00,0.096
375.00,0.094
376.00,0.092
377.00,0.091
378.00,0.090
379.00,0.088
380.00,0.087
381.00,0.085
382.00,0.084
383.00,0.083
384.00,0.082
385.00,0.081
386.00,0.080
387.00,0.079
388.00,0.078
389.00,0.077
390.00,0.076
391.00,0.075
392.00,0.075
393.00,0.074
394.00,0.073
395.00,0.073
396.00,0.072
397.00,0.071
398.00,0.071
399.00,0.070
400.00,0.070
401.00,0.069
402.00,0.069
403.00,0.068
404.00,0.068
405.00,0.067
406.00,0.067
407.00,0.066
408.00,0.066
409.00,0.066
410.00,0.065
411.00,0.065
412.00,0.064
413.00,0.064
414.00,0.064
415.00,0.063
416.00,0.063
417.00,0.063
418.00,0.063
419.00,0.062
420.00,0.062
421.00,0.062
422.00,0.061
423.00,0.061
424.00,0.061
425.00,0.061
426.00,0.060
427.00,0.060
428.00,0.060
429.00,0.060
430.00,0.059
431.00,0.059
432.00,0.059
433.00,0.059
434.00,0.058
435.00,0.058
436.00,0.058
437.00,0.058
438.00,0.058
439.00,0.057
440.00,0.057
441.00,0.057
442.00,0.057
443.00,0.057
444.00,0.056
445.00,0.056
446.00,0.056
447.00,0.056
448.00,0.055
449.00,0.055
450.00,0.055
451.00,0.055
452.00,0.055
453.00,0.055
454.00,0.054
455.00,0.054
456.00,0.054
457.00,0.054
458.00,0.054
459.00,0.054
460.00,0.053
461.00,0.053
462.00,0.053
463.00,0.053
464.00,0.053
465.00,0.053
466.00,0.053
467.00,0.052
468.00,0.052
469.00,0.052
470.00,0.052
471.00,0.052
472.00,0.052
473.00,0.052
474.00,0.052
475.00,0.051
476.00,0.051
477.00,0.051
478.00,0.051
479.00,0.051
480.00,0.051
481.00,0.051
482.00,0.050
483.00,0.050
484.00,0.050
485.00,0.050
486.00,0.050
487.00,0.050
488.00,0.050
489.00,0.050
490.00,0.049
491.00,0.049
492.00,0.049
493.00,0.049
494.00,0.049
495.00,0.049
496.00,0.049
497.00,0.049
498.00,0.048
499.00,0.048
500.00,0.048
501.00,0.048
502.00,0.048
503.00,0.048
504.00,0.048
505.00,0.048
506.00,0.048
507.00,0.048
508.00,0.047
509.00,0.047
510.00,0.047
511.00,0.047
512.00,0.047
513.00,0.047
514.00,0.047
515.00,0.047
516.00,0.047
517.00,0.047
518.00,0.047
519.00,0.047
520.00,0.047
521.00,0.046
522.00,0.046
523.00,0.046
524.00,0.046
525.00,0.046
526.00,0.046
527.00,0.046
528.00,0.046
529.00,0.046
530.00,0.046
531.00,0.046
532.00,0.046
533.00,0.045
534.00,0.045
535.00,0.045
536.00,0.046
537.00,0.045
538.00,0.045
539.00,0.045
540.00,0.045
541.00,0.045
542.00,0.045
543.00,0.045
544.00,0.045
545.00,0.045
546.00,0.045
547.00,0.045
548.00,0.045
549.00,0.044
550.00,0.044
551.00,0.044
552.00,0.044
553.00,0.044
554.00,0.044
555.00,0.044
556.00,0.044
557.00,0.044
558.00,0.044
559.00,0.044
560.00,0.044
561.00,0.044
562.00,0.044
563.00,0.044
564.00,0.044
565.00,0.044
566.00,0.044
567.00,0.043
568.00,0.043
569.00,0.043
570.00,0.043
571.00,0.043
572.00,0.043
573.00,0.043
574.00,0.043
575.00,0.043
576.00,0.043
577.00,0.043
578.00,0.043
579.00,0.043
580.00,0.043
581.00,0.043
582.00,0.043
583.00,0.043
584.00,0.043
585.00,0.043
586.00,0.043
587.00,0.043
588.00,0.043
589.00,0.043
590.00,0.043
591.00,0.043
592.00,0.043
593.00,0.043
594.00,0.042
595.00,0.043
596.00,0.042
597.00,0.043
598.00,0.043
599.00,0.043
600.00,0.043
601.00,0.043
602.00,0.043
603.00,0.043
604.00,0.043
605.00,0.042
606.00,0.043
607.00,0.042
608.00,0.042
609.00,0.042
610.00,0.042
611.00,0.042
612.00,0.042
613.00,0.042
614.00,0.042
615.00,0.042
616.00,0.042
617.00,0.042
618.00,0.042
619.00,0.042
620.00,0.042
621.00,0.042
622.00,0.042
623.00,0.042
624.00,0.042
625.00,0.042
626.00,0.042
627.00,0.042
628.00,0.042
629.00,0.042
630.00,0.042
631.00,0.042
632.00,0.042
633.00,0.042
634.00,0.042
635.00,0.042
636.00,0.041
637.00,0.041
638.00,0.041
639.00,0.041
640.00,0.041
641.00,0.041
642.00,0.041
643.00,0.041
644.00,0.041
645.00,0.041
646.00,0.041
647.00,0.041
648.00,0.041
649.00,0.041
650.00,0.041
651.00,0.041
652.00,0.041
653.00,0.041
654.00,0.041
655.00,0.041
656.00,0.041
657.00,0.041
658.00,0.041
659.00,0.041
660.00,0.041
661.00,0.041
662.00,0.041
663.00,0.041
664.00,0.041
665.00,0.041
666.00,0.041
667.00,0.041
668.00,0.041
669.00,0.041
670.00,0.041
671.00,0.041
672.00,0.041
673.00,0.041
674.00,0.041
675.00,0.041
676.00,0.041
677.00,0.041
678.00,0.041
679.00,0.041
680.00,0.041
681.00,0.041
682.00,0.041
683.00,0.041
684.00,0.041
685.00,0.041
686.00,0.041
687.00,0.041
688.00,0.041
689.00,0.041
690.00,0.041
691.00,0.041
692.00,0.041
693.00,0.041
694.00,0.041
695.00,0.041
696.00,0.041
697.00,0.041
698.00,0.041
699.00,0.041
700.00,0.041
701.00,0.041
702.00,0.041
703.00,0.041
704.00,0.041
705.00,0.041
706.00,0.041
707.00,0.042
708.00,0.042
709.00,0.042
710.00,0.042
711.00,0.042
712.00,0.042
713.00,0.042
714.00,0.042
715.00,0.042
716.00,0.042
717.00,0.043
718.00,0.043
719.00,0.043
720.00,0.043
721.00,0.043
722.00,0.044
723.00,0.044
724.00,0.044
725.00,0.044
726.00,0.045
727.00,0.045
728.00,0.045
729.00,0.046
730.00,0.046
731.00,0.047
732.00,0.047
733.00,0.047
734.00,0.048
735.00,0.048
736.00,0.048
737.00,0.049
738.00,0.049
739.00,0.049
740.00,0.049
741.00,0.049
742.00,0.049
743.00,0.049
744.00,0.049
745.00,0.049
746.00,0.049
747.00,0.049
748.00,0.049
749.00,0.049
750.00,0.049
751.00,0.049
752.00,0.049
753.00,0.049
754.00,0.049
755.00,0.049
756.00,0.049
757.00,0.049
758.00,0.049
759.00,0.049
760.00,0.050
761.00,0.049
762.00,0.049
763.00,0.049
764.00,0.049
765.00,0.049
766.00,0.049
767.00,0.049
768.00,0.049
769.00,0.049
770.00,0.049
771.00,0.049
772.00,0.049
773.00,0.049
774.00,0.049
775.00,0.049
776.00,0.049
777.00,0.049
778.00,0.048
779.00,0.048
780.00,0.048
781.00,0.048
782.00,0.048
783.00,0.048
784.00,0.048
785.00,0.048
786.00,0.048
787.00,0.048
788.00,0.048
789.00,0.047
790.00,0.047
791.00,0.047
792.00,0.047
793.00,0.047
794.00,0.047
795.00,0.047
796.00,0.047
797.00,0.047
798.00,0.046
799.00,0.046
800.00,0.046
801.00,0.046
802.00,0.046
803.00,0.046
804.00,0.046
805.00,0.046
806.00,0.046
807.00,0.046
808.00,0.046
809.00,0.046
810.00,0.046
811.00,0.046
812.00,0.046
813.00,0.046
814.00,0.046
815.00,0.046
816.00,0.046
817.00,0.046
818.00,0.046
819.00,0.046
820.00,0.046
821.00,0.046
822.00,0.047
823.00,0.047
824.00,0.047
825.00,0.048
826.00,0.048
827.00,0.048
828.00,0.049
829.00,0.049
830.00,0.050
831.00,0.050
832.00,0.051
833.00,0.051
834.00,0.051
835.00,0.052
836.00,0.052
837.00,0.052
838.00,0.052
839.00,0.052
840.00,0.053
841.00,0.053
842.00,0.053
843.00,0.053
844.00,0.053
845.00,0.053
846.00,0.053
847.00,0.053
848.00,0.054
849.00,0.054
850.00,0.054
851.00,0.054
852.00,0.054
853.00,0.054
854.00,0.054
855.00,0.054
856.00,0.055
857.00,0.055
858.00,0.055
859.00,0.055
860.00,0.055
861.00,0.055
862.00,0.055
863.00,0.055
864.00,0.056
865.00,0.056
866.00,0.056
867.00,0.056
868.00,0.056
869.00,0.056
870.00,0.057
871.00,0.057
872.00,0.057
873.00,0.057
874.00,0.057
875.00,0.058
876.00,0.058
877.00,0.058
878.00,0.058
879.00,0.059
880.00,0.059
881.00,0.059
882.00,0.059
883.00,0.059
884.00,0.060
885.00,0.060
886.00,0.060
887.00,0.061
888.00,0.061
889.00,0.061
890.00,0.061
891.00,0.061
892.00,0.062
893.00,0.062
894.00,0.062
895.00,0.062
896.00,0.063
897.00,0.063
898.00,0.063
899.00,0.063
900.00,0.064
