"MultiBrasseLaRueeVersGoulau50x - RawData"
"Wavelength nm.","Abs."
190.00,3.014
191.00,3.694
192.00,3.389
193.00,3.461
194.00,3.337
195.00,3.456
196.00,3.523
197.00,3.632
198.00,3.577
199.00,3.497
200.00,3.855
201.00,3.483
202.00,3.394
203.00,3.581
204.00,3.485
205.00,3.242
206.00,3.113
207.00,3.078
208.00,2.945
209.00,2.850
210.00,2.746
211.00,2.638
212.00,2.524
213.00,2.424
214.00,2.319
215.00,2.222
216.00,2.127
217.00,2.036
218.00,1.943
219.00,1.858
220.00,1.775
221.00,1.697
222.00,1.626
223.00,1.556
224.00,1.484
225.00,1.419
226.00,1.353
227.00,1.287
228.00,1.222
229.00,1.163
230.00,1.108
231.00,1.057
232.00,1.010
233.00,0.968
234.00,0.932
235.00,0.900
236.00,0.874
237.00,0.851
238.00,0.832
239.00,0.817
240.00,0.804
241.00,0.795
242.00,0.789
243.00,0.785
244.00,0.783
245.00,0.783
246.00,0.784
247.00,0.786
248.00,0.789
249.00,0.792
250.00,0.797
251.00,0.802
252.00,0.806
253.00,0.812
254.00,0.818
255.00,0.823
256.00,0.829
257.00,0.833
258.00,0.836
259.00,0.839
260.00,0.841
261.00,0.843
262.00,0.845
263.00,0.847
264.00,0.849
265.00,0.851
266.00,0.852
267.00,0.853
268.00,0.852
269.00,0.851
270.00,0.848
271.00,0.844
272.00,0.841
273.00,0.836
274.00,0.830
275.00,0.823
276.00,0.816
277.00,0.806
278.00,0.796
279.00,0.785
280.00,0.774
281.00,0.762
282.00,0.748
283.00,0.735
284.00,0.720
285.00,0.703
286.00,0.688
287.00,0.672
288.00,0.655
289.00,0.639
290.00,0.622
291.00,0.605
292.00,0.589
293.00,0.574
294.00,0.561
295.00,0.548
296.00,0.536
297.00,0.525
298.00,0.514
299.00,0.504
300.00,0.494
301.00,0.484
302.00,0.475
303.00,0.466
304.00,0.458
305.00,0.449
306.00,0.442
307.00,0.434
308.00,0.426
309.00,0.419
310.00,0.412
311.00,0.405
312.00,0.398
313.00,0.392
314.00,0.386
315.00,0.380
316.00,0.374
317.00,0.368
318.00,0.363
319.00,0.357
320.00,0.351
321.00,0.345
322.00,0.339
323.00,0.334
324.00,0.328
325.00,0.323
326.00,0.317
327.00,0.311
328.00,0.306
329.00,0.300
330.00,0.294
331.00,0.289
332.00,0.284
333.00,0.278
334.00,0.273
335.00,0.268
336.00,0.263
337.00,0.258
338.00,0.253
339.00,0.249
340.00,0.244
341.00,0.238
342.00,0.233
343.00,0.229
344.00,0.224
345.00,0.220
346.00,0.216
347.00,0.212
348.00,0.208
349.00,0.203
350.00,0.200
351.00,0.196
352.00,0.192
353.00,0.189
354.00,0.185
355.00,0.182
356.00,0.179
357.00,0.175
358.00,0.172
359.00,0.169
360.00,0.166
361.00,0.163
362.00,0.161
363.00,0.158
364.00,0.155
365.00,0.153
366.00,0.151
367.00,0.148
368.00,0.146
369.00,0.144
370.00,0.142
371.00,0.140
372.00,0.138
373.00,0.136
374.00,0.134
375.00,0.132
376.00,0.130
377.00,0.128
378.00,0.126
379.00,0.124
380.00,0.123
381.00,0.121
382.00,0.119
383.00,0.118
384.00,0.116
385.00,0.115
386.00,0.114
387.00,0.112
388.00,0.111
389.00,0.110
390.00,0.108
391.00,0.107
392.00,0.106
393.00,0.105
394.00,0.104
395.00,0.103
396.00,0.102
397.00,0.101
398.00,0.100
399.00,0.099
400.00,0.098
401.00,0.097
402.00,0.096
403.00,0.095
404.00,0.094
405.00,0.093
406.00,0.093
407.00,0.092
408.00,0.091
409.00,0.090
410.00,0.089
411.00,0.089
412.00,0.088
413.00,0.087
414.00,0.087
415.00,0.086
416.00,0.085
417.00,0.085
418.00,0.084
419.00,0.083
420.00,0.083
421.00,0.082
422.00,0.082
423.00,0.081
424.00,0.081
425.00,0.080
426.00,0.079
427.00,0.079
428.00,0.078
429.00,0.078
430.00,0.077
431.00,0.077
432.00,0.076
433.00,0.076
434.00,0.075
435.00,0.074
436.00,0.074
437.00,0.074
438.00,0.073
439.00,0.073
440.00,0.072
441.00,0.072
442.00,0.071
443.00,0.071
444.00,0.071
445.00,0.070
446.00,0.070
447.00,0.069
448.00,0.069
449.00,0.069
450.00,0.068
451.00,0.068
452.00,0.067
453.00,0.067
454.00,0.067
455.00,0.066
456.00,0.066
457.00,0.066
458.00,0.065
459.00,0.065
460.00,0.064
461.00,0.064
462.00,0.064
463.00,0.063
464.00,0.063
465.00,0.063
466.00,0.062
467.00,0.062
468.00,0.062
469.00,0.061
470.00,0.061
471.00,0.061
472.00,0.060
473.00,0.060
474.00,0.060
475.00,0.059
476.00,0.059
477.00,0.059
478.00,0.059
479.00,0.058
480.00,0.058
481.00,0.058
482.00,0.057
483.00,0.057
484.00,0.057
485.00,0.057
486.00,0.056
487.00,0.056
488.00,0.056
489.00,0.056
490.00,0.055
491.00,0.055
492.00,0.055
493.00,0.055
494.00,0.054
495.00,0.054
496.00,0.054
497.00,0.054
498.00,0.053
499.00,0.053
500.00,0.053
501.00,0.053
502.00,0.052
503.00,0.052
504.00,0.052
505.00,0.052
506.00,0.052
507.00,0.052
508.00,0.051
509.00,0.051
510.00,0.051
511.00,0.051
512.00,0.050
513.00,0.050
514.00,0.050
515.00,0.050
516.00,0.050
517.00,0.050
518.00,0.049
519.00,0.049
520.00,0.049
521.00,0.049
522.00,0.049
523.00,0.049
524.00,0.048
525.00,0.048
526.00,0.048
527.00,0.048
528.00,0.048
529.00,0.048
530.00,0.047
531.00,0.047
532.00,0.047
533.00,0.047
534.00,0.047
535.00,0.047
536.00,0.047
537.00,0.047
538.00,0.046
539.00,0.046
540.00,0.046
541.00,0.046
542.00,0.046
543.00,0.046
544.00,0.046
545.00,0.046
546.00,0.045
547.00,0.045
548.00,0.045
549.00,0.045
550.00,0.045
551.00,0.045
552.00,0.045
553.00,0.045
554.00,0.044
555.00,0.044
556.00,0.044
557.00,0.044
558.00,0.044
559.00,0.044
560.00,0.044
561.00,0.044
562.00,0.044
563.00,0.044
564.00,0.044
565.00,0.043
566.00,0.043
567.00,0.043
568.00,0.043
569.00,0.043
570.00,0.043
571.00,0.043
572.00,0.043
573.00,0.043
574.00,0.043
575.00,0.043
576.00,0.043
577.00,0.043
578.00,0.042
579.00,0.042
580.00,0.042
581.00,0.042
582.00,0.042
583.00,0.042
584.00,0.042
585.00,0.042
586.00,0.042
587.00,0.042
588.00,0.042
589.00,0.042
590.00,0.042
591.00,0.042
592.00,0.042
593.00,0.042
594.00,0.042
595.00,0.042
596.00,0.042
597.00,0.042
598.00,0.042
599.00,0.042
600.00,0.041
601.00,0.041
602.00,0.042
603.00,0.041
604.00,0.041
605.00,0.041
606.00,0.041
607.00,0.041
608.00,0.041
609.00,0.041
610.00,0.041
611.00,0.041
612.00,0.041
613.00,0.041
614.00,0.041
615.00,0.041
616.00,0.041
617.00,0.041
618.00,0.041
619.00,0.041
620.00,0.041
621.00,0.041
622.00,0.040
623.00,0.040
624.00,0.040
625.00,0.040
626.00,0.040
627.00,0.040
628.00,0.040
629.00,0.040
630.00,0.040
631.00,0.040
632.00,0.040
633.00,0.040
634.00,0.040
635.00,0.040
636.00,0.040
637.00,0.040
638.00,0.040
639.00,0.040
640.00,0.040
641.00,0.040
642.00,0.040
643.00,0.040
644.00,0.040
645.00,0.040
646.00,0.039
647.00,0.040
648.00,0.040
649.00,0.039
650.00,0.039
651.00,0.039
652.00,0.039
653.00,0.039
654.00,0.039
655.00,0.039
656.00,0.039
657.00,0.039
658.00,0.039
659.00,0.039
660.00,0.039
661.00,0.039
662.00,0.039
663.00,0.039
664.00,0.039
665.00,0.039
666.00,0.039
667.00,0.039
668.00,0.039
669.00,0.039
670.00,0.039
671.00,0.039
672.00,0.039
673.00,0.039
674.00,0.039
675.00,0.039
676.00,0.039
677.00,0.039
678.00,0.039
679.00,0.039
680.00,0.039
681.00,0.039
682.00,0.039
683.00,0.039
684.00,0.039
685.00,0.039
686.00,0.039
687.00,0.039
688.00,0.039
689.00,0.039
690.00,0.039
691.00,0.039
692.00,0.039
693.00,0.039
694.00,0.039
695.00,0.039
696.00,0.039
697.00,0.039
698.00,0.039
699.00,0.039
700.00,0.039
701.00,0.039
702.00,0.039
703.00,0.039
704.00,0.039
705.00,0.039
706.00,0.039
707.00,0.040
708.00,0.040
709.00,0.040
710.00,0.040
711.00,0.040
712.00,0.040
713.00,0.040
714.00,0.040
715.00,0.040
716.00,0.041
717.00,0.041
718.00,0.041
719.00,0.041
720.00,0.041
721.00,0.042
722.00,0.042
723.00,0.042
724.00,0.042
725.00,0.042
726.00,0.043
727.00,0.043
728.00,0.043
729.00,0.044
730.00,0.044
731.00,0.045
732.00,0.045
733.00,0.046
734.00,0.046
735.00,0.046
736.00,0.047
737.00,0.047
738.00,0.047
739.00,0.047
740.00,0.047
741.00,0.047
742.00,0.048
743.00,0.048
744.00,0.048
745.00,0.047
746.00,0.047
747.00,0.048
748.00,0.047
749.00,0.048
750.00,0.047
751.00,0.047
752.00,0.047
753.00,0.047
754.00,0.047
755.00,0.047
756.00,0.048
757.00,0.048
758.00,0.048
759.00,0.048
760.00,0.048
761.00,0.047
762.00,0.047
763.00,0.047
764.00,0.047
765.00,0.047
766.00,0.047
767.00,0.047
768.00,0.047
769.00,0.047
770.00,0.047
771.00,0.047
772.00,0.047
773.00,0.047
774.00,0.047
775.00,0.047
776.00,0.047
777.00,0.047
778.00,0.047
779.00,0.046
780.00,0.046
781.00,0.046
782.00,0.046
783.00,0.046
784.00,0.046
785.00,0.046
786.00,0.046
787.00,0.045
788.00,0.045
789.00,0.045
790.00,0.045
791.00,0.045
792.00,0.045
793.00,0.045
794.00,0.045
795.00,0.045
796.00,0.045
797.00,0.045
798.00,0.044
799.00,0.044
800.00,0.044
801.00,0.044
802.00,0.044
803.00,0.044
804.00,0.044
805.00,0.044
806.00,0.044
807.00,0.044
808.00,0.044
809.00,0.044
810.00,0.044
811.00,0.044
812.00,0.044
813.00,0.044
814.00,0.044
815.00,0.044
816.00,0.044
817.00,0.044
818.00,0.044
819.00,0.044
820.00,0.045
821.00,0.045
822.00,0.045
823.00,0.045
824.00,0.046
825.00,0.046
826.00,0.046
827.00,0.047
828.00,0.047
829.00,0.048
830.00,0.048
831.00,0.049
832.00,0.049
833.00,0.050
834.00,0.050
835.00,0.050
836.00,0.050
837.00,0.051
838.00,0.051
839.00,0.051
840.00,0.051
841.00,0.051
842.00,0.051
843.00,0.051
844.00,0.051
845.00,0.051
846.00,0.052
847.00,0.052
848.00,0.052
849.00,0.052
850.00,0.052
851.00,0.052
852.00,0.052
853.00,0.052
854.00,0.053
855.00,0.053
856.00,0.053
857.00,0.053
858.00,0.053
859.00,0.053
860.00,0.053
861.00,0.053
862.00,0.053
863.00,0.053
864.00,0.054
865.00,0.054
866.00,0.054
867.00,0.054
868.00,0.054
869.00,0.054
870.00,0.055
871.00,0.055
872.00,0.055
873.00,0.055
874.00,0.055
875.00,0.055
876.00,0.056
877.00,0.056
878.00,0.056
879.00,0.056
880.00,0.056
881.00,0.057
882.00,0.057
883.00,0.057
884.00,0.057
885.00,0.058
886.00,0.058
887.00,0.058
888.00,0.058
889.00,0.059
890.00,0.059
891.00,0.059
892.00,0.059
893.00,0.060
894.00,0.060
895.00,0.060
896.00,0.060
897.00,0.060
898.00,0.061
899.00,0.061
900.00,0.061
