"NaufrageurLEtapeDuPhare_50x - RawData"
"Wavelength nm.","Abs."
190.00,2.905
191.00,3.279
192.00,3.698
193.00,3.447
194.00,3.624
195.00,3.781
196.00,3.800
197.00,3.558
198.00,3.768
199.00,3.821
200.00,3.718
201.00,3.880
202.00,3.870
203.00,3.663
204.00,3.673
205.00,3.375
206.00,3.276
207.00,3.243
208.00,3.137
209.00,3.006
210.00,2.892
211.00,2.773
212.00,2.646
213.00,2.538
214.00,2.424
215.00,2.315
216.00,2.212
217.00,2.109
218.00,2.009
219.00,1.908
220.00,1.817
221.00,1.731
222.00,1.651
223.00,1.572
224.00,1.492
225.00,1.418
226.00,1.345
227.00,1.272
228.00,1.203
229.00,1.140
230.00,1.081
231.00,1.028
232.00,0.981
233.00,0.939
234.00,0.904
235.00,0.874
236.00,0.848
237.00,0.827
238.00,0.809
239.00,0.795
240.00,0.784
241.00,0.776
242.00,0.770
243.00,0.767
244.00,0.764
245.00,0.764
246.00,0.764
247.00,0.765
248.00,0.768
249.00,0.770
250.00,0.774
251.00,0.777
252.00,0.781
253.00,0.784
254.00,0.787
255.00,0.790
256.00,0.793
257.00,0.795
258.00,0.795
259.00,0.795
260.00,0.794
261.00,0.793
262.00,0.792
263.00,0.790
264.00,0.788
265.00,0.785
266.00,0.782
267.00,0.778
268.00,0.773
269.00,0.767
270.00,0.759
271.00,0.751
272.00,0.742
273.00,0.731
274.00,0.720
275.00,0.708
276.00,0.696
277.00,0.682
278.00,0.667
279.00,0.652
280.00,0.637
281.00,0.621
282.00,0.605
283.00,0.587
284.00,0.569
285.00,0.551
286.00,0.534
287.00,0.518
288.00,0.501
289.00,0.485
290.00,0.468
291.00,0.451
292.00,0.437
293.00,0.425
294.00,0.415
295.00,0.405
296.00,0.397
297.00,0.390
298.00,0.384
299.00,0.378
300.00,0.373
301.00,0.368
302.00,0.363
303.00,0.359
304.00,0.355
305.00,0.351
306.00,0.348
307.00,0.344
308.00,0.340
309.00,0.337
310.00,0.333
311.00,0.330
312.00,0.327
313.00,0.324
314.00,0.321
315.00,0.317
316.00,0.314
317.00,0.311
318.00,0.307
319.00,0.303
320.00,0.300
321.00,0.296
322.00,0.292
323.00,0.288
324.00,0.285
325.00,0.280
326.00,0.275
327.00,0.271
328.00,0.267
329.00,0.262
330.00,0.257
331.00,0.253
332.00,0.248
333.00,0.243
334.00,0.238
335.00,0.233
336.00,0.229
337.00,0.224
338.00,0.220
339.00,0.215
340.00,0.211
341.00,0.205
342.00,0.201
343.00,0.196
344.00,0.192
345.00,0.188
346.00,0.184
347.00,0.181
348.00,0.177
349.00,0.173
350.00,0.170
351.00,0.166
352.00,0.163
353.00,0.160
354.00,0.157
355.00,0.154
356.00,0.151
357.00,0.148
358.00,0.146
359.00,0.143
360.00,0.141
361.00,0.138
362.00,0.136
363.00,0.134
364.00,0.132
365.00,0.130
366.00,0.128
367.00,0.126
368.00,0.124
369.00,0.122
370.00,0.120
371.00,0.118
372.00,0.117
373.00,0.115
374.00,0.113
375.00,0.112
376.00,0.110
377.00,0.108
378.00,0.107
379.00,0.105
380.00,0.103
381.00,0.102
382.00,0.100
383.00,0.099
384.00,0.098
385.00,0.096
386.00,0.095
387.00,0.093
388.00,0.092
389.00,0.091
390.00,0.090
391.00,0.088
392.00,0.087
393.00,0.086
394.00,0.084
395.00,0.083
396.00,0.082
397.00,0.081
398.00,0.080
399.00,0.079
400.00,0.078
401.00,0.077
402.00,0.076
403.00,0.076
404.00,0.075
405.00,0.074
406.00,0.073
407.00,0.072
408.00,0.072
409.00,0.071
410.00,0.071
411.00,0.070
412.00,0.069
413.00,0.069
414.00,0.068
415.00,0.068
416.00,0.067
417.00,0.067
418.00,0.066
419.00,0.066
420.00,0.065
421.00,0.065
422.00,0.065
423.00,0.064
424.00,0.064
425.00,0.064
426.00,0.063
427.00,0.063
428.00,0.063
429.00,0.062
430.00,0.062
431.00,0.062
432.00,0.061
433.00,0.061
434.00,0.061
435.00,0.060
436.00,0.060
437.00,0.060
438.00,0.060
439.00,0.059
440.00,0.059
441.00,0.059
442.00,0.059
443.00,0.059
444.00,0.058
445.00,0.058
446.00,0.058
447.00,0.058
448.00,0.058
449.00,0.057
450.00,0.057
451.00,0.057
452.00,0.057
453.00,0.057
454.00,0.056
455.00,0.056
456.00,0.056
457.00,0.056
458.00,0.055
459.00,0.055
460.00,0.055
461.00,0.055
462.00,0.055
463.00,0.055
464.00,0.054
465.00,0.054
466.00,0.054
467.00,0.054
468.00,0.054
469.00,0.054
470.00,0.053
471.00,0.053
472.00,0.053
473.00,0.053
474.00,0.053
475.00,0.053
476.00,0.053
477.00,0.052
478.00,0.052
479.00,0.052
480.00,0.052
481.00,0.052
482.00,0.052
483.00,0.051
484.00,0.051
485.00,0.051
486.00,0.051
487.00,0.051
488.00,0.051
489.00,0.051
490.00,0.050
491.00,0.050
492.00,0.050
493.00,0.050
494.00,0.050
495.00,0.050
496.00,0.050
497.00,0.050
498.00,0.049
499.00,0.049
500.00,0.049
501.00,0.049
502.00,0.049
503.00,0.049
504.00,0.049
505.00,0.049
506.00,0.048
507.00,0.048
508.00,0.048
509.00,0.048
510.00,0.048
511.00,0.048
512.00,0.048
513.00,0.048
514.00,0.048
515.00,0.048
516.00,0.048
517.00,0.047
518.00,0.047
519.00,0.047
520.00,0.047
521.00,0.047
522.00,0.047
523.00,0.047
524.00,0.047
525.00,0.047
526.00,0.047
527.00,0.046
528.00,0.046
529.00,0.046
530.00,0.046
531.00,0.046
532.00,0.046
533.00,0.046
534.00,0.046
535.00,0.046
536.00,0.046
537.00,0.046
538.00,0.046
539.00,0.046
540.00,0.045
541.00,0.045
542.00,0.045
543.00,0.045
544.00,0.045
545.00,0.045
546.00,0.045
547.00,0.045
548.00,0.045
549.00,0.045
550.00,0.045
551.00,0.045
552.00,0.045
553.00,0.045
554.00,0.045
555.00,0.045
556.00,0.045
557.00,0.045
558.00,0.044
559.00,0.044
560.00,0.044
561.00,0.044
562.00,0.044
563.00,0.044
564.00,0.044
565.00,0.044
566.00,0.044
567.00,0.044
568.00,0.044
569.00,0.044
570.00,0.044
571.00,0.044
572.00,0.044
573.00,0.044
574.00,0.044
575.00,0.044
576.00,0.044
577.00,0.044
578.00,0.043
579.00,0.043
580.00,0.043
581.00,0.043
582.00,0.043
583.00,0.043
584.00,0.043
585.00,0.043
586.00,0.043
587.00,0.043
588.00,0.043
589.00,0.043
590.00,0.043
591.00,0.043
592.00,0.043
593.00,0.043
594.00,0.043
595.00,0.043
596.00,0.043
597.00,0.043
598.00,0.043
599.00,0.043
600.00,0.043
601.00,0.043
602.00,0.043
603.00,0.043
604.00,0.043
605.00,0.043
606.00,0.043
607.00,0.043
608.00,0.043
609.00,0.043
610.00,0.043
611.00,0.043
612.00,0.043
613.00,0.043
614.00,0.043
615.00,0.043
616.00,0.043
617.00,0.043
618.00,0.043
619.00,0.043
620.00,0.043
621.00,0.043
622.00,0.042
623.00,0.042
624.00,0.042
625.00,0.042
626.00,0.042
627.00,0.042
628.00,0.042
629.00,0.042
630.00,0.042
631.00,0.042
632.00,0.042
633.00,0.042
634.00,0.042
635.00,0.042
636.00,0.042
637.00,0.042
638.00,0.042
639.00,0.042
640.00,0.042
641.00,0.042
642.00,0.042
643.00,0.042
644.00,0.042
645.00,0.042
646.00,0.042
647.00,0.042
648.00,0.042
649.00,0.042
650.00,0.042
651.00,0.042
652.00,0.042
653.00,0.042
654.00,0.042
655.00,0.042
656.00,0.042
657.00,0.042
658.00,0.042
659.00,0.042
660.00,0.042
661.00,0.042
662.00,0.042
663.00,0.042
664.00,0.042
665.00,0.042
666.00,0.042
667.00,0.042
668.00,0.042
669.00,0.042
670.00,0.042
671.00,0.042
672.00,0.042
673.00,0.042
674.00,0.042
675.00,0.042
676.00,0.042
677.00,0.042
678.00,0.042
679.00,0.042
680.00,0.042
681.00,0.042
682.00,0.042
683.00,0.042
684.00,0.042
685.00,0.042
686.00,0.042
687.00,0.042
688.00,0.042
689.00,0.042
690.00,0.042
691.00,0.042
692.00,0.042
693.00,0.042
694.00,0.042
695.00,0.042
696.00,0.042
697.00,0.042
698.00,0.042
699.00,0.042
700.00,0.042
701.00,0.042
702.00,0.042
703.00,0.042
704.00,0.042
705.00,0.042
706.00,0.042
707.00,0.042
708.00,0.042
709.00,0.042
710.00,0.042
711.00,0.043
712.00,0.043
713.00,0.043
714.00,0.043
715.00,0.043
716.00,0.043
717.00,0.043
718.00,0.044
719.00,0.044
720.00,0.044
721.00,0.044
722.00,0.045
723.00,0.045
724.00,0.045
725.00,0.045
726.00,0.045
727.00,0.046
728.00,0.046
729.00,0.047
730.00,0.047
731.00,0.048
732.00,0.048
733.00,0.049
734.00,0.049
735.00,0.049
736.00,0.050
737.00,0.050
738.00,0.050
739.00,0.050
740.00,0.050
741.00,0.050
742.00,0.050
743.00,0.050
744.00,0.050
745.00,0.050
746.00,0.050
747.00,0.050
748.00,0.050
749.00,0.050
750.00,0.050
751.00,0.050
752.00,0.050
753.00,0.050
754.00,0.050
755.00,0.050
756.00,0.050
757.00,0.050
758.00,0.050
759.00,0.050
760.00,0.051
761.00,0.050
762.00,0.050
763.00,0.050
764.00,0.050
765.00,0.050
766.00,0.050
767.00,0.050
768.00,0.050
769.00,0.050
770.00,0.050
771.00,0.050
772.00,0.050
773.00,0.050
774.00,0.050
775.00,0.050
776.00,0.049
777.00,0.049
778.00,0.049
779.00,0.049
780.00,0.049
781.00,0.049
782.00,0.049
783.00,0.049
784.00,0.049
785.00,0.049
786.00,0.048
787.00,0.048
788.00,0.048
789.00,0.048
790.00,0.048
791.00,0.048
792.00,0.048
793.00,0.048
794.00,0.048
795.00,0.048
796.00,0.047
797.00,0.047
798.00,0.047
799.00,0.047
800.00,0.047
801.00,0.047
802.00,0.047
803.00,0.047
804.00,0.047
805.00,0.047
806.00,0.047
807.00,0.047
808.00,0.047
809.00,0.047
810.00,0.047
811.00,0.047
812.00,0.047
813.00,0.047
814.00,0.047
815.00,0.047
816.00,0.047
817.00,0.047
818.00,0.047
819.00,0.047
820.00,0.047
821.00,0.048
822.00,0.048
823.00,0.048
824.00,0.048
825.00,0.049
826.00,0.049
827.00,0.050
828.00,0.050
829.00,0.051
830.00,0.051
831.00,0.052
832.00,0.052
833.00,0.053
834.00,0.053
835.00,0.053
836.00,0.053
837.00,0.053
838.00,0.054
839.00,0.054
840.00,0.054
841.00,0.054
842.00,0.054
843.00,0.054
844.00,0.054
845.00,0.055
846.00,0.055
847.00,0.055
848.00,0.055
849.00,0.055
850.00,0.055
851.00,0.055
852.00,0.055
853.00,0.056
854.00,0.056
855.00,0.056
856.00,0.056
857.00,0.056
858.00,0.056
859.00,0.056
860.00,0.056
861.00,0.056
862.00,0.056
863.00,0.057
864.00,0.057
865.00,0.057
866.00,0.057
867.00,0.057
868.00,0.057
869.00,0.057
870.00,0.058
871.00,0.058
872.00,0.058
873.00,0.058
874.00,0.058
875.00,0.059
876.00,0.059
877.00,0.059
878.00,0.059
879.00,0.059
880.00,0.060
881.00,0.060
882.00,0.060
883.00,0.060
884.00,0.061
885.00,0.061
886.00,0.061
887.00,0.061
888.00,0.062
889.00,0.062
890.00,0.062
891.00,0.062
892.00,0.063
893.00,0.063
894.00,0.063
895.00,0.063
896.00,0.064
897.00,0.064
898.00,0.064
899.00,0.064
900.00,0.064
