"NaufrageurBrigantin_50x - RawData"
"Wavelength nm.","Abs."
190.00,3.644
191.00,3.553
192.00,3.613
193.00,3.287
194.00,3.622
195.00,3.752
196.00,3.843
197.00,3.712
198.00,3.739
199.00,3.874
200.00,3.898
201.00,3.850
202.00,3.872
203.00,3.869
204.00,3.885
205.00,3.863
206.00,3.925
207.00,3.879
208.00,3.825
209.00,3.814
210.00,3.815
211.00,3.835
212.00,3.875
213.00,3.985
214.00,3.946
215.00,3.927
216.00,3.850
217.00,3.772
218.00,3.596
219.00,3.664
220.00,3.494
221.00,3.384
222.00,3.261
223.00,3.131
224.00,3.002
225.00,2.853
226.00,2.712
227.00,2.587
228.00,2.444
229.00,2.308
230.00,2.185
231.00,2.074
232.00,1.971
233.00,1.877
234.00,1.794
235.00,1.722
236.00,1.661
237.00,1.607
238.00,1.560
239.00,1.522
240.00,1.488
241.00,1.460
242.00,1.440
243.00,1.423
244.00,1.411
245.00,1.401
246.00,1.395
247.00,1.390
248.00,1.387
249.00,1.386
250.00,1.388
251.00,1.390
252.00,1.394
253.00,1.398
254.00,1.404
255.00,1.410
256.00,1.417
257.00,1.423
258.00,1.428
259.00,1.432
260.00,1.435
261.00,1.440
262.00,1.442
263.00,1.446
264.00,1.449
265.00,1.448
266.00,1.447
267.00,1.444
268.00,1.440
269.00,1.434
270.00,1.425
271.00,1.414
272.00,1.405
273.00,1.393
274.00,1.379
275.00,1.363
276.00,1.347
277.00,1.328
278.00,1.307
279.00,1.287
280.00,1.265
281.00,1.242
282.00,1.220
283.00,1.194
284.00,1.170
285.00,1.143
286.00,1.120
287.00,1.098
288.00,1.075
289.00,1.053
290.00,1.027
291.00,1.004
292.00,0.981
293.00,0.962
294.00,0.945
295.00,0.930
296.00,0.917
297.00,0.905
298.00,0.893
299.00,0.882
300.00,0.871
301.00,0.861
302.00,0.851
303.00,0.841
304.00,0.832
305.00,0.823
306.00,0.814
307.00,0.804
308.00,0.794
309.00,0.784
310.00,0.775
311.00,0.765
312.00,0.755
313.00,0.747
314.00,0.737
315.00,0.728
316.00,0.718
317.00,0.709
318.00,0.699
319.00,0.689
320.00,0.678
321.00,0.668
322.00,0.657
323.00,0.648
324.00,0.636
325.00,0.624
326.00,0.614
327.00,0.602
328.00,0.590
329.00,0.579
330.00,0.567
331.00,0.555
332.00,0.544
333.00,0.532
334.00,0.520
335.00,0.509
336.00,0.497
337.00,0.487
338.00,0.475
339.00,0.464
340.00,0.454
341.00,0.442
342.00,0.430
343.00,0.421
344.00,0.411
345.00,0.401
346.00,0.392
347.00,0.383
348.00,0.375
349.00,0.365
350.00,0.357
351.00,0.349
352.00,0.341
353.00,0.334
354.00,0.326
355.00,0.320
356.00,0.313
357.00,0.306
358.00,0.300
359.00,0.294
360.00,0.288
361.00,0.282
362.00,0.276
363.00,0.271
364.00,0.267
365.00,0.262
366.00,0.257
367.00,0.253
368.00,0.248
369.00,0.244
370.00,0.240
371.00,0.236
372.00,0.232
373.00,0.228
374.00,0.224
375.00,0.221
376.00,0.217
377.00,0.214
378.00,0.211
379.00,0.207
380.00,0.204
381.00,0.201
382.00,0.198
383.00,0.195
384.00,0.192
385.00,0.189
386.00,0.187
387.00,0.184
388.00,0.182
389.00,0.179
390.00,0.176
391.00,0.174
392.00,0.172
393.00,0.170
394.00,0.168
395.00,0.165
396.00,0.163
397.00,0.162
398.00,0.160
399.00,0.158
400.00,0.156
401.00,0.154
402.00,0.152
403.00,0.151
404.00,0.149
405.00,0.147
406.00,0.146
407.00,0.144
408.00,0.143
409.00,0.141
410.00,0.140
411.00,0.138
412.00,0.137
413.00,0.136
414.00,0.134
415.00,0.133
416.00,0.132
417.00,0.131
418.00,0.130
419.00,0.128
420.00,0.127
421.00,0.126
422.00,0.125
423.00,0.124
424.00,0.123
425.00,0.122
426.00,0.121
427.00,0.120
428.00,0.119
429.00,0.118
430.00,0.117
431.00,0.116
432.00,0.115
433.00,0.114
434.00,0.113
435.00,0.112
436.00,0.111
437.00,0.110
438.00,0.109
439.00,0.109
440.00,0.108
441.00,0.107
442.00,0.106
443.00,0.105
444.00,0.105
445.00,0.104
446.00,0.103
447.00,0.102
448.00,0.102
449.00,0.101
450.00,0.100
451.00,0.099
452.00,0.099
453.00,0.098
454.00,0.097
455.00,0.097
456.00,0.096
457.00,0.095
458.00,0.095
459.00,0.094
460.00,0.093
461.00,0.093
462.00,0.092
463.00,0.092
464.00,0.091
465.00,0.090
466.00,0.090
467.00,0.089
468.00,0.089
469.00,0.088
470.00,0.087
471.00,0.087
472.00,0.086
473.00,0.086
474.00,0.085
475.00,0.085
476.00,0.084
477.00,0.084
478.00,0.083
479.00,0.083
480.00,0.082
481.00,0.081
482.00,0.081
483.00,0.080
484.00,0.080
485.00,0.079
486.00,0.079
487.00,0.079
488.00,0.078
489.00,0.078
490.00,0.077
491.00,0.077
492.00,0.076
493.00,0.076
494.00,0.075
495.00,0.075
496.00,0.075
497.00,0.074
498.00,0.074
499.00,0.073
500.00,0.073
501.00,0.073
502.00,0.072
503.00,0.072
504.00,0.071
505.00,0.071
506.00,0.071
507.00,0.070
508.00,0.070
509.00,0.070
510.00,0.069
511.00,0.069
512.00,0.069
513.00,0.068
514.00,0.068
515.00,0.068
516.00,0.067
517.00,0.067
518.00,0.067
519.00,0.066
520.00,0.066
521.00,0.066
522.00,0.065
523.00,0.065
524.00,0.065
525.00,0.065
526.00,0.064
527.00,0.064
528.00,0.064
529.00,0.063
530.00,0.063
531.00,0.063
532.00,0.063
533.00,0.062
534.00,0.062
535.00,0.062
536.00,0.062
537.00,0.061
538.00,0.061
539.00,0.061
540.00,0.061
541.00,0.060
542.00,0.060
543.00,0.060
544.00,0.060
545.00,0.059
546.00,0.059
547.00,0.059
548.00,0.059
549.00,0.059
550.00,0.058
551.00,0.058
552.00,0.058
553.00,0.058
554.00,0.058
555.00,0.057
556.00,0.057
557.00,0.057
558.00,0.057
559.00,0.057
560.00,0.056
561.00,0.056
562.00,0.056
563.00,0.056
564.00,0.056
565.00,0.056
566.00,0.055
567.00,0.055
568.00,0.055
569.00,0.055
570.00,0.055
571.00,0.055
572.00,0.054
573.00,0.054
574.00,0.054
575.00,0.054
576.00,0.054
577.00,0.054
578.00,0.054
579.00,0.053
580.00,0.053
581.00,0.053
582.00,0.053
583.00,0.053
584.00,0.053
585.00,0.053
586.00,0.053
587.00,0.052
588.00,0.052
589.00,0.052
590.00,0.052
591.00,0.052
592.00,0.052
593.00,0.052
594.00,0.052
595.00,0.052
596.00,0.052
597.00,0.051
598.00,0.051
599.00,0.051
600.00,0.051
601.00,0.051
602.00,0.051
603.00,0.051
604.00,0.051
605.00,0.051
606.00,0.051
607.00,0.051
608.00,0.051
609.00,0.050
610.00,0.050
611.00,0.050
612.00,0.050
613.00,0.050
614.00,0.050
615.00,0.050
616.00,0.050
617.00,0.050
618.00,0.050
619.00,0.050
620.00,0.049
621.00,0.049
622.00,0.049
623.00,0.049
624.00,0.049
625.00,0.049
626.00,0.049
627.00,0.049
628.00,0.049
629.00,0.049
630.00,0.049
631.00,0.049
632.00,0.048
633.00,0.048
634.00,0.048
635.00,0.048
636.00,0.048
637.00,0.048
638.00,0.048
639.00,0.048
640.00,0.048
641.00,0.048
642.00,0.048
643.00,0.048
644.00,0.048
645.00,0.048
646.00,0.048
647.00,0.047
648.00,0.047
649.00,0.047
650.00,0.047
651.00,0.047
652.00,0.047
653.00,0.047
654.00,0.047
655.00,0.047
656.00,0.047
657.00,0.047
658.00,0.047
659.00,0.047
660.00,0.047
661.00,0.047
662.00,0.047
663.00,0.047
664.00,0.047
665.00,0.047
666.00,0.047
667.00,0.046
668.00,0.046
669.00,0.046
670.00,0.046
671.00,0.046
672.00,0.046
673.00,0.046
674.00,0.046
675.00,0.046
676.00,0.046
677.00,0.046
678.00,0.046
679.00,0.046
680.00,0.046
681.00,0.046
682.00,0.046
683.00,0.046
684.00,0.046
685.00,0.046
686.00,0.046
687.00,0.046
688.00,0.045
689.00,0.045
690.00,0.045
691.00,0.045
692.00,0.045
693.00,0.045
694.00,0.045
695.00,0.045
696.00,0.045
697.00,0.045
698.00,0.045
699.00,0.045
700.00,0.045
701.00,0.045
702.00,0.045
703.00,0.045
704.00,0.046
705.00,0.046
706.00,0.046
707.00,0.046
708.00,0.046
709.00,0.046
710.00,0.046
711.00,0.046
712.00,0.046
713.00,0.046
714.00,0.046
715.00,0.046
716.00,0.047
717.00,0.047
718.00,0.047
719.00,0.047
720.00,0.047
721.00,0.047
722.00,0.048
723.00,0.048
724.00,0.048
725.00,0.048
726.00,0.048
727.00,0.049
728.00,0.049
729.00,0.050
730.00,0.050
731.00,0.051
732.00,0.051
733.00,0.051
734.00,0.052
735.00,0.052
736.00,0.052
737.00,0.053
738.00,0.053
739.00,0.053
740.00,0.053
741.00,0.053
742.00,0.053
743.00,0.053
744.00,0.053
745.00,0.053
746.00,0.053
747.00,0.053
748.00,0.053
749.00,0.053
750.00,0.053
751.00,0.053
752.00,0.053
753.00,0.053
754.00,0.053
755.00,0.053
756.00,0.053
757.00,0.053
758.00,0.053
759.00,0.053
760.00,0.053
761.00,0.053
762.00,0.052
763.00,0.053
764.00,0.053
765.00,0.052
766.00,0.052
767.00,0.052
768.00,0.052
769.00,0.052
770.00,0.052
771.00,0.052
772.00,0.052
773.00,0.052
774.00,0.052
775.00,0.052
776.00,0.052
777.00,0.051
778.00,0.051
779.00,0.051
780.00,0.051
781.00,0.051
782.00,0.051
783.00,0.051
784.00,0.051
785.00,0.051
786.00,0.050
787.00,0.050
788.00,0.050
789.00,0.050
790.00,0.050
791.00,0.050
792.00,0.050
793.00,0.050
794.00,0.050
795.00,0.049
796.00,0.049
797.00,0.049
798.00,0.049
799.00,0.049
800.00,0.049
801.00,0.049
802.00,0.049
803.00,0.049
804.00,0.049
805.00,0.049
806.00,0.048
807.00,0.048
808.00,0.049
809.00,0.049
810.00,0.049
811.00,0.049
812.00,0.049
813.00,0.049
814.00,0.049
815.00,0.049
816.00,0.049
817.00,0.049
818.00,0.049
819.00,0.049
820.00,0.050
821.00,0.050
822.00,0.050
823.00,0.050
824.00,0.050
825.00,0.051
826.00,0.051
827.00,0.052
828.00,0.052
829.00,0.053
830.00,0.053
831.00,0.054
832.00,0.054
833.00,0.055
834.00,0.055
835.00,0.055
836.00,0.055
837.00,0.056
838.00,0.056
839.00,0.056
840.00,0.056
841.00,0.056
842.00,0.056
843.00,0.056
844.00,0.056
845.00,0.056
846.00,0.056
847.00,0.057
848.00,0.057
849.00,0.057
850.00,0.057
851.00,0.057
852.00,0.057
853.00,0.057
854.00,0.057
855.00,0.057
856.00,0.057
857.00,0.058
858.00,0.058
859.00,0.058
860.00,0.058
861.00,0.058
862.00,0.058
863.00,0.058
864.00,0.058
865.00,0.058
866.00,0.058
867.00,0.058
868.00,0.059
869.00,0.059
870.00,0.059
871.00,0.059
872.00,0.059
873.00,0.059
874.00,0.060
875.00,0.060
876.00,0.060
877.00,0.060
878.00,0.060
879.00,0.061
880.00,0.061
881.00,0.061
882.00,0.061
883.00,0.061
884.00,0.062
885.00,0.062
886.00,0.062
887.00,0.062
888.00,0.063
889.00,0.063
890.00,0.063
891.00,0.063
892.00,0.063
893.00,0.064
894.00,0.064
895.00,0.064
896.00,0.064
897.00,0.065
898.00,0.065
899.00,0.065
900.00,0.065
