"NouvelleFranceAmbreeDeSarrasin50x - RawData"
"Wavelength nm.","Abs."
190.00,3.544
191.00,3.103
192.00,3.268
193.00,3.185
194.00,3.391
195.00,3.558
196.00,3.394
197.00,3.455
198.00,3.362
199.00,3.338
200.00,3.410
201.00,3.437
202.00,3.433
203.00,3.452
204.00,3.288
205.00,3.175
206.00,3.048
207.00,2.959
208.00,2.814
209.00,2.698
210.00,2.584
211.00,2.453
212.00,2.356
213.00,2.249
214.00,2.151
215.00,2.055
216.00,1.958
217.00,1.870
218.00,1.781
219.00,1.696
220.00,1.613
221.00,1.539
222.00,1.468
223.00,1.398
224.00,1.328
225.00,1.261
226.00,1.196
227.00,1.131
228.00,1.068
229.00,1.011
230.00,0.958
231.00,0.910
232.00,0.866
233.00,0.827
234.00,0.794
235.00,0.766
236.00,0.742
237.00,0.722
238.00,0.706
239.00,0.693
240.00,0.683
241.00,0.676
242.00,0.671
243.00,0.668
244.00,0.666
245.00,0.666
246.00,0.666
247.00,0.668
248.00,0.670
249.00,0.672
250.00,0.675
251.00,0.679
252.00,0.682
253.00,0.686
254.00,0.690
255.00,0.693
256.00,0.696
257.00,0.698
258.00,0.700
259.00,0.701
260.00,0.701
261.00,0.701
262.00,0.701
263.00,0.701
264.00,0.701
265.00,0.700
266.00,0.699
267.00,0.699
268.00,0.697
269.00,0.694
270.00,0.690
271.00,0.684
272.00,0.678
273.00,0.671
274.00,0.663
275.00,0.653
276.00,0.644
277.00,0.633
278.00,0.622
279.00,0.610
280.00,0.597
281.00,0.584
282.00,0.570
283.00,0.555
284.00,0.539
285.00,0.523
286.00,0.507
287.00,0.492
288.00,0.476
289.00,0.459
290.00,0.442
291.00,0.426
292.00,0.411
293.00,0.398
294.00,0.387
295.00,0.376
296.00,0.367
297.00,0.359
298.00,0.351
299.00,0.344
300.00,0.337
301.00,0.331
302.00,0.325
303.00,0.320
304.00,0.315
305.00,0.310
306.00,0.306
307.00,0.301
308.00,0.297
309.00,0.294
310.00,0.290
311.00,0.286
312.00,0.283
313.00,0.280
314.00,0.276
315.00,0.273
316.00,0.270
317.00,0.267
318.00,0.263
319.00,0.260
320.00,0.257
321.00,0.253
322.00,0.250
323.00,0.246
324.00,0.243
325.00,0.240
326.00,0.236
327.00,0.232
328.00,0.229
329.00,0.225
330.00,0.221
331.00,0.217
332.00,0.213
333.00,0.209
334.00,0.205
335.00,0.201
336.00,0.198
337.00,0.194
338.00,0.191
339.00,0.187
340.00,0.184
341.00,0.179
342.00,0.175
343.00,0.172
344.00,0.168
345.00,0.165
346.00,0.162
347.00,0.159
348.00,0.155
349.00,0.152
350.00,0.149
351.00,0.146
352.00,0.143
353.00,0.141
354.00,0.138
355.00,0.135
356.00,0.133
357.00,0.130
358.00,0.127
359.00,0.125
360.00,0.122
361.00,0.121
362.00,0.119
363.00,0.116
364.00,0.114
365.00,0.113
366.00,0.111
367.00,0.109
368.00,0.107
369.00,0.105
370.00,0.104
371.00,0.102
372.00,0.101
373.00,0.099
374.00,0.098
375.00,0.097
376.00,0.095
377.00,0.094
378.00,0.092
379.00,0.091
380.00,0.090
381.00,0.089
382.00,0.087
383.00,0.086
384.00,0.085
385.00,0.084
386.00,0.083
387.00,0.082
388.00,0.081
389.00,0.080
390.00,0.080
391.00,0.079
392.00,0.078
393.00,0.077
394.00,0.076
395.00,0.075
396.00,0.075
397.00,0.074
398.00,0.073
399.00,0.072
400.00,0.072
401.00,0.071
402.00,0.070
403.00,0.070
404.00,0.069
405.00,0.069
406.00,0.068
407.00,0.068
408.00,0.067
409.00,0.067
410.00,0.066
411.00,0.066
412.00,0.065
413.00,0.065
414.00,0.064
415.00,0.064
416.00,0.063
417.00,0.063
418.00,0.063
419.00,0.063
420.00,0.062
421.00,0.062
422.00,0.061
423.00,0.061
424.00,0.061
425.00,0.060
426.00,0.060
427.00,0.060
428.00,0.059
429.00,0.059
430.00,0.059
431.00,0.058
432.00,0.058
433.00,0.058
434.00,0.058
435.00,0.057
436.00,0.057
437.00,0.057
438.00,0.057
439.00,0.056
440.00,0.056
441.00,0.056
442.00,0.056
443.00,0.055
444.00,0.055
445.00,0.055
446.00,0.055
447.00,0.055
448.00,0.054
449.00,0.054
450.00,0.054
451.00,0.054
452.00,0.054
453.00,0.053
454.00,0.053
455.00,0.053
456.00,0.053
457.00,0.053
458.00,0.053
459.00,0.052
460.00,0.052
461.00,0.052
462.00,0.052
463.00,0.052
464.00,0.052
465.00,0.051
466.00,0.051
467.00,0.051
468.00,0.051
469.00,0.051
470.00,0.051
471.00,0.050
472.00,0.050
473.00,0.050
474.00,0.050
475.00,0.050
476.00,0.050
477.00,0.049
478.00,0.049
479.00,0.049
480.00,0.049
481.00,0.049
482.00,0.049
483.00,0.049
484.00,0.048
485.00,0.048
486.00,0.048
487.00,0.048
488.00,0.048
489.00,0.048
490.00,0.048
491.00,0.047
492.00,0.047
493.00,0.047
494.00,0.047
495.00,0.047
496.00,0.047
497.00,0.047
498.00,0.047
499.00,0.046
500.00,0.046
501.00,0.046
502.00,0.046
503.00,0.046
504.00,0.046
505.00,0.046
506.00,0.046
507.00,0.046
508.00,0.046
509.00,0.046
510.00,0.045
511.00,0.045
512.00,0.045
513.00,0.045
514.00,0.045
515.00,0.045
516.00,0.045
517.00,0.045
518.00,0.045
519.00,0.045
520.00,0.044
521.00,0.044
522.00,0.044
523.00,0.044
524.00,0.044
525.00,0.044
526.00,0.044
527.00,0.044
528.00,0.044
529.00,0.044
530.00,0.044
531.00,0.044
532.00,0.043
533.00,0.043
534.00,0.043
535.00,0.043
536.00,0.043
537.00,0.043
538.00,0.043
539.00,0.043
540.00,0.043
541.00,0.043
542.00,0.043
543.00,0.043
544.00,0.043
545.00,0.043
546.00,0.043
547.00,0.042
548.00,0.042
549.00,0.042
550.00,0.042
551.00,0.042
552.00,0.042
553.00,0.042
554.00,0.042
555.00,0.042
556.00,0.042
557.00,0.042
558.00,0.042
559.00,0.042
560.00,0.042
561.00,0.042
562.00,0.042
563.00,0.042
564.00,0.041
565.00,0.041
566.00,0.041
567.00,0.041
568.00,0.041
569.00,0.041
570.00,0.041
571.00,0.041
572.00,0.041
573.00,0.041
574.00,0.041
575.00,0.041
576.00,0.041
577.00,0.041
578.00,0.041
579.00,0.041
580.00,0.041
581.00,0.041
582.00,0.041
583.00,0.041
584.00,0.041
585.00,0.041
586.00,0.041
587.00,0.040
588.00,0.040
589.00,0.040
590.00,0.040
591.00,0.040
592.00,0.040
593.00,0.040
594.00,0.040
595.00,0.040
596.00,0.040
597.00,0.040
598.00,0.040
599.00,0.040
600.00,0.040
601.00,0.040
602.00,0.040
603.00,0.040
604.00,0.040
605.00,0.040
606.00,0.040
607.00,0.040
608.00,0.040
609.00,0.040
610.00,0.040
611.00,0.040
612.00,0.040
613.00,0.040
614.00,0.040
615.00,0.040
616.00,0.040
617.00,0.040
618.00,0.040
619.00,0.040
620.00,0.040
621.00,0.040
622.00,0.040
623.00,0.040
624.00,0.040
625.00,0.040
626.00,0.040
627.00,0.040
628.00,0.040
629.00,0.040
630.00,0.039
631.00,0.039
632.00,0.039
633.00,0.039
634.00,0.039
635.00,0.039
636.00,0.039
637.00,0.039
638.00,0.039
639.00,0.039
640.00,0.039
641.00,0.039
642.00,0.039
643.00,0.039
644.00,0.039
645.00,0.039
646.00,0.039
647.00,0.039
648.00,0.039
649.00,0.039
650.00,0.039
651.00,0.039
652.00,0.039
653.00,0.039
654.00,0.039
655.00,0.039
656.00,0.039
657.00,0.039
658.00,0.039
659.00,0.039
660.00,0.039
661.00,0.039
662.00,0.039
663.00,0.039
664.00,0.039
665.00,0.039
666.00,0.039
667.00,0.039
668.00,0.039
669.00,0.039
670.00,0.039
671.00,0.039
672.00,0.039
673.00,0.039
674.00,0.039
675.00,0.039
676.00,0.039
677.00,0.039
678.00,0.039
679.00,0.039
680.00,0.039
681.00,0.039
682.00,0.039
683.00,0.039
684.00,0.039
685.00,0.039
686.00,0.039
687.00,0.039
688.00,0.039
689.00,0.039
690.00,0.039
691.00,0.039
692.00,0.039
693.00,0.039
694.00,0.039
695.00,0.039
696.00,0.039
697.00,0.039
698.00,0.039
699.00,0.039
700.00,0.039
701.00,0.039
702.00,0.039
703.00,0.039
704.00,0.039
705.00,0.039
706.00,0.039
707.00,0.039
708.00,0.040
709.00,0.040
710.00,0.040
711.00,0.040
712.00,0.040
713.00,0.040
714.00,0.040
715.00,0.040
716.00,0.040
717.00,0.041
718.00,0.041
719.00,0.041
720.00,0.041
721.00,0.041
722.00,0.042
723.00,0.042
724.00,0.042
725.00,0.042
726.00,0.042
727.00,0.043
728.00,0.043
729.00,0.044
730.00,0.044
731.00,0.045
732.00,0.045
733.00,0.046
734.00,0.046
735.00,0.046
736.00,0.047
737.00,0.047
738.00,0.047
739.00,0.047
740.00,0.047
741.00,0.047
742.00,0.047
743.00,0.047
744.00,0.047
745.00,0.047
746.00,0.047
747.00,0.047
748.00,0.047
749.00,0.047
750.00,0.047
751.00,0.047
752.00,0.047
753.00,0.047
754.00,0.047
755.00,0.047
756.00,0.047
757.00,0.047
758.00,0.047
759.00,0.047
760.00,0.048
761.00,0.047
762.00,0.047
763.00,0.047
764.00,0.047
765.00,0.047
766.00,0.047
767.00,0.047
768.00,0.047
769.00,0.047
770.00,0.047
771.00,0.047
772.00,0.047
773.00,0.047
774.00,0.047
775.00,0.047
776.00,0.047
777.00,0.047
778.00,0.046
779.00,0.046
780.00,0.046
781.00,0.046
782.00,0.046
783.00,0.046
784.00,0.046
785.00,0.046
786.00,0.046
787.00,0.045
788.00,0.045
789.00,0.045
790.00,0.045
791.00,0.045
792.00,0.045
793.00,0.045
794.00,0.045
795.00,0.045
796.00,0.045
797.00,0.045
798.00,0.045
799.00,0.044
800.00,0.044
801.00,0.044
802.00,0.044
803.00,0.044
804.00,0.044
805.00,0.044
806.00,0.044
807.00,0.044
808.00,0.044
809.00,0.044
810.00,0.044
811.00,0.044
812.00,0.044
813.00,0.044
814.00,0.044
815.00,0.044
816.00,0.044
817.00,0.044
818.00,0.044
819.00,0.044
820.00,0.045
821.00,0.045
822.00,0.045
823.00,0.045
824.00,0.046
825.00,0.046
826.00,0.046
827.00,0.047
828.00,0.047
829.00,0.048
830.00,0.048
831.00,0.049
832.00,0.049
833.00,0.050
834.00,0.050
835.00,0.050
836.00,0.050
837.00,0.051
838.00,0.051
839.00,0.051
840.00,0.051
841.00,0.051
842.00,0.051
843.00,0.051
844.00,0.051
845.00,0.052
846.00,0.052
847.00,0.052
848.00,0.052
849.00,0.052
850.00,0.052
851.00,0.052
852.00,0.052
853.00,0.053
854.00,0.053
855.00,0.053
856.00,0.053
857.00,0.053
858.00,0.053
859.00,0.053
860.00,0.053
861.00,0.053
862.00,0.053
863.00,0.054
864.00,0.054
865.00,0.054
866.00,0.054
867.00,0.054
868.00,0.054
869.00,0.054
870.00,0.055
871.00,0.055
872.00,0.055
873.00,0.055
874.00,0.055
875.00,0.056
876.00,0.056
877.00,0.056
878.00,0.056
879.00,0.056
880.00,0.057
881.00,0.057
882.00,0.057
883.00,0.057
884.00,0.058
885.00,0.058
886.00,0.058
887.00,0.058
888.00,0.058
889.00,0.059
890.00,0.059
891.00,0.059
892.00,0.059
893.00,0.060
894.00,0.060
895.00,0.060
896.00,0.060
897.00,0.061
898.00,0.061
899.00,0.061
900.00,0.061
