"RasLBockPtiteVingnenne50x - RawData"
"Wavelength nm.","Abs."
190.00,2.337
191.00,2.630
192.00,2.749
193.00,2.754
194.00,2.936
195.00,2.931
196.00,2.979
197.00,2.929
198.00,3.044
199.00,2.958
200.00,2.967
201.00,2.855
202.00,2.780
203.00,2.716
204.00,2.615
205.00,2.515
206.00,2.410
207.00,2.303
208.00,2.204
209.00,2.108
210.00,2.013
211.00,1.931
212.00,1.847
213.00,1.766
214.00,1.690
215.00,1.622
216.00,1.553
217.00,1.487
218.00,1.424
219.00,1.361
220.00,1.302
221.00,1.247
222.00,1.194
223.00,1.141
224.00,1.088
225.00,1.038
226.00,0.987
227.00,0.936
228.00,0.885
229.00,0.838
230.00,0.793
231.00,0.752
232.00,0.715
233.00,0.681
234.00,0.652
235.00,0.627
236.00,0.605
237.00,0.586
238.00,0.570
239.00,0.556
240.00,0.544
241.00,0.534
242.00,0.526
243.00,0.520
244.00,0.516
245.00,0.512
246.00,0.510
247.00,0.509
248.00,0.509
249.00,0.509
250.00,0.510
251.00,0.512
252.00,0.514
253.00,0.516
254.00,0.519
255.00,0.521
256.00,0.524
257.00,0.526
258.00,0.527
259.00,0.528
260.00,0.529
261.00,0.530
262.00,0.531
263.00,0.533
264.00,0.534
265.00,0.534
266.00,0.535
267.00,0.535
268.00,0.534
269.00,0.532
270.00,0.529
271.00,0.526
272.00,0.522
273.00,0.518
274.00,0.512
275.00,0.506
276.00,0.500
277.00,0.492
278.00,0.484
279.00,0.475
280.00,0.466
281.00,0.457
282.00,0.446
283.00,0.435
284.00,0.423
285.00,0.410
286.00,0.398
287.00,0.386
288.00,0.373
289.00,0.360
290.00,0.347
291.00,0.334
292.00,0.321
293.00,0.310
294.00,0.301
295.00,0.292
296.00,0.284
297.00,0.276
298.00,0.269
299.00,0.262
300.00,0.255
301.00,0.249
302.00,0.244
303.00,0.239
304.00,0.235
305.00,0.232
306.00,0.228
307.00,0.225
308.00,0.222
309.00,0.219
310.00,0.217
311.00,0.214
312.00,0.212
313.00,0.210
314.00,0.208
315.00,0.206
316.00,0.204
317.00,0.202
318.00,0.200
319.00,0.198
320.00,0.196
321.00,0.194
322.00,0.192
323.00,0.190
324.00,0.188
325.00,0.185
326.00,0.182
327.00,0.180
328.00,0.177
329.00,0.174
330.00,0.171
331.00,0.168
332.00,0.165
333.00,0.162
334.00,0.159
335.00,0.155
336.00,0.153
337.00,0.150
338.00,0.146
339.00,0.143
340.00,0.140
341.00,0.136
342.00,0.133
343.00,0.130
344.00,0.127
345.00,0.124
346.00,0.121
347.00,0.119
348.00,0.116
349.00,0.113
350.00,0.111
351.00,0.108
352.00,0.106
353.00,0.104
354.00,0.102
355.00,0.100
356.00,0.098
357.00,0.096
358.00,0.094
359.00,0.092
360.00,0.091
361.00,0.089
362.00,0.088
363.00,0.086
364.00,0.084
365.00,0.083
366.00,0.082
367.00,0.081
368.00,0.079
369.00,0.078
370.00,0.077
371.00,0.076
372.00,0.075
373.00,0.074
374.00,0.073
375.00,0.072
376.00,0.072
377.00,0.071
378.00,0.070
379.00,0.069
380.00,0.068
381.00,0.068
382.00,0.067
383.00,0.066
384.00,0.066
385.00,0.065
386.00,0.065
387.00,0.064
388.00,0.064
389.00,0.064
390.00,0.063
391.00,0.063
392.00,0.062
393.00,0.062
394.00,0.062
395.00,0.061
396.00,0.061
397.00,0.061
398.00,0.060
399.00,0.060
400.00,0.060
401.00,0.060
402.00,0.059
403.00,0.059
404.00,0.059
405.00,0.059
406.00,0.059
407.00,0.058
408.00,0.058
409.00,0.058
410.00,0.058
411.00,0.058
412.00,0.058
413.00,0.057
414.00,0.057
415.00,0.057
416.00,0.057
417.00,0.057
418.00,0.057
419.00,0.057
420.00,0.057
421.00,0.057
422.00,0.057
423.00,0.057
424.00,0.056
425.00,0.056
426.00,0.056
427.00,0.056
428.00,0.056
429.00,0.056
430.00,0.056
431.00,0.056
432.00,0.056
433.00,0.056
434.00,0.055
435.00,0.055
436.00,0.055
437.00,0.055
438.00,0.055
439.00,0.055
440.00,0.055
441.00,0.055
442.00,0.055
443.00,0.055
444.00,0.055
445.00,0.055
446.00,0.055
447.00,0.055
448.00,0.054
449.00,0.054
450.00,0.054
451.00,0.054
452.00,0.054
453.00,0.054
454.00,0.054
455.00,0.054
456.00,0.054
457.00,0.054
458.00,0.054
459.00,0.054
460.00,0.054
461.00,0.054
462.00,0.054
463.00,0.054
464.00,0.054
465.00,0.054
466.00,0.054
467.00,0.054
468.00,0.054
469.00,0.054
470.00,0.054
471.00,0.054
472.00,0.054
473.00,0.054
474.00,0.054
475.00,0.054
476.00,0.054
477.00,0.054
478.00,0.054
479.00,0.054
480.00,0.054
481.00,0.054
482.00,0.054
483.00,0.054
484.00,0.054
485.00,0.054
486.00,0.055
487.00,0.055
488.00,0.055
489.00,0.055
490.00,0.055
491.00,0.055
492.00,0.055
493.00,0.055
494.00,0.055
495.00,0.055
496.00,0.055
497.00,0.055
498.00,0.055
499.00,0.055
500.00,0.055
501.00,0.055
502.00,0.055
503.00,0.055
504.00,0.055
505.00,0.055
506.00,0.055
507.00,0.055
508.00,0.055
509.00,0.055
510.00,0.055
511.00,0.055
512.00,0.055
513.00,0.055
514.00,0.055
515.00,0.055
516.00,0.054
517.00,0.054
518.00,0.054
519.00,0.054
520.00,0.054
521.00,0.054
522.00,0.054
523.00,0.054
524.00,0.054
525.00,0.054
526.00,0.053
527.00,0.053
528.00,0.053
529.00,0.053
530.00,0.053
531.00,0.053
532.00,0.053
533.00,0.052
534.00,0.052
535.00,0.052
536.00,0.052
537.00,0.052
538.00,0.051
539.00,0.051
540.00,0.051
541.00,0.051
542.00,0.051
543.00,0.050
544.00,0.050
545.00,0.050
546.00,0.050
547.00,0.050
548.00,0.050
549.00,0.049
550.00,0.049
551.00,0.049
552.00,0.049
553.00,0.049
554.00,0.048
555.00,0.048
556.00,0.048
557.00,0.048
558.00,0.048
559.00,0.048
560.00,0.047
561.00,0.047
562.00,0.047
563.00,0.047
564.00,0.047
565.00,0.047
566.00,0.047
567.00,0.047
568.00,0.046
569.00,0.046
570.00,0.046
571.00,0.046
572.00,0.046
573.00,0.046
574.00,0.046
575.00,0.046
576.00,0.045
577.00,0.045
578.00,0.045
579.00,0.045
580.00,0.045
581.00,0.045
582.00,0.045
583.00,0.045
584.00,0.045
585.00,0.045
586.00,0.045
587.00,0.044
588.00,0.044
589.00,0.044
590.00,0.044
591.00,0.044
592.00,0.044
593.00,0.044
594.00,0.044
595.00,0.044
596.00,0.044
597.00,0.044
598.00,0.044
599.00,0.044
600.00,0.044
601.00,0.044
602.00,0.044
603.00,0.044
604.00,0.044
605.00,0.043
606.00,0.043
607.00,0.043
608.00,0.043
609.00,0.043
610.00,0.043
611.00,0.043
612.00,0.043
613.00,0.043
614.00,0.043
615.00,0.043
616.00,0.043
617.00,0.043
618.00,0.043
619.00,0.043
620.00,0.042
621.00,0.042
622.00,0.042
623.00,0.042
624.00,0.042
625.00,0.042
626.00,0.042
627.00,0.042
628.00,0.042
629.00,0.042
630.00,0.042
631.00,0.042
632.00,0.042
633.00,0.042
634.00,0.042
635.00,0.042
636.00,0.042
637.00,0.042
638.00,0.042
639.00,0.042
640.00,0.042
641.00,0.042
642.00,0.042
643.00,0.042
644.00,0.042
645.00,0.041
646.00,0.041
647.00,0.041
648.00,0.042
649.00,0.041
650.00,0.041
651.00,0.041
652.00,0.041
653.00,0.041
654.00,0.041
655.00,0.041
656.00,0.041
657.00,0.041
658.00,0.041
659.00,0.041
660.00,0.041
661.00,0.041
662.00,0.041
663.00,0.041
664.00,0.041
665.00,0.041
666.00,0.041
667.00,0.041
668.00,0.041
669.00,0.041
670.00,0.041
671.00,0.041
672.00,0.041
673.00,0.041
674.00,0.041
675.00,0.041
676.00,0.041
677.00,0.041
678.00,0.041
679.00,0.041
680.00,0.041
681.00,0.041
682.00,0.041
683.00,0.041
684.00,0.041
685.00,0.041
686.00,0.041
687.00,0.041
688.00,0.041
689.00,0.041
690.00,0.041
691.00,0.041
692.00,0.041
693.00,0.041
694.00,0.041
695.00,0.041
696.00,0.041
697.00,0.041
698.00,0.041
699.00,0.041
700.00,0.041
701.00,0.041
702.00,0.041
703.00,0.041
704.00,0.041
705.00,0.042
706.00,0.042
707.00,0.042
708.00,0.042
709.00,0.042
710.00,0.042
711.00,0.042
712.00,0.042
713.00,0.042
714.00,0.042
715.00,0.043
716.00,0.043
717.00,0.043
718.00,0.043
719.00,0.043
720.00,0.043
721.00,0.044
722.00,0.044
723.00,0.044
724.00,0.044
725.00,0.045
726.00,0.045
727.00,0.045
728.00,0.046
729.00,0.046
730.00,0.046
731.00,0.047
732.00,0.047
733.00,0.048
734.00,0.048
735.00,0.049
736.00,0.049
737.00,0.049
738.00,0.050
739.00,0.050
740.00,0.050
741.00,0.050
742.00,0.050
743.00,0.050
744.00,0.050
745.00,0.050
746.00,0.050
747.00,0.050
748.00,0.050
749.00,0.050
750.00,0.050
751.00,0.050
752.00,0.050
753.00,0.050
754.00,0.050
755.00,0.050
756.00,0.050
757.00,0.050
758.00,0.050
759.00,0.050
760.00,0.050
761.00,0.050
762.00,0.049
763.00,0.049
764.00,0.049
765.00,0.049
766.00,0.049
767.00,0.049
768.00,0.049
769.00,0.049
770.00,0.049
771.00,0.049
772.00,0.049
773.00,0.049
774.00,0.049
775.00,0.049
776.00,0.049
777.00,0.049
778.00,0.048
779.00,0.048
780.00,0.048
781.00,0.048
782.00,0.048
783.00,0.048
784.00,0.048
785.00,0.048
786.00,0.048
787.00,0.048
788.00,0.047
789.00,0.047
790.00,0.047
791.00,0.047
792.00,0.047
793.00,0.047
794.00,0.047
795.00,0.047
796.00,0.047
797.00,0.046
798.00,0.046
799.00,0.046
800.00,0.046
801.00,0.046
802.00,0.046
803.00,0.046
804.00,0.046
805.00,0.046
806.00,0.046
807.00,0.046
808.00,0.046
809.00,0.046
810.00,0.046
811.00,0.046
812.00,0.046
813.00,0.046
814.00,0.046
815.00,0.046
816.00,0.046
817.00,0.046
818.00,0.046
819.00,0.046
820.00,0.046
821.00,0.047
822.00,0.047
823.00,0.047
824.00,0.047
825.00,0.048
826.00,0.048
827.00,0.049
828.00,0.049
829.00,0.050
830.00,0.050
831.00,0.051
832.00,0.051
833.00,0.052
834.00,0.052
835.00,0.052
836.00,0.052
837.00,0.053
838.00,0.053
839.00,0.053
840.00,0.053
841.00,0.053
842.00,0.053
843.00,0.053
844.00,0.053
845.00,0.053
846.00,0.054
847.00,0.054
848.00,0.054
849.00,0.054
850.00,0.054
851.00,0.054
852.00,0.054
853.00,0.054
854.00,0.054
855.00,0.054
856.00,0.055
857.00,0.055
858.00,0.055
859.00,0.055
860.00,0.055
861.00,0.055
862.00,0.055
863.00,0.055
864.00,0.055
865.00,0.055
866.00,0.056
867.00,0.056
868.00,0.056
869.00,0.056
870.00,0.056
871.00,0.056
872.00,0.056
873.00,0.057
874.00,0.057
875.00,0.057
876.00,0.057
877.00,0.057
878.00,0.058
879.00,0.058
880.00,0.058
881.00,0.058
882.00,0.058
883.00,0.059
884.00,0.059
885.00,0.059
886.00,0.059
887.00,0.060
888.00,0.060
889.00,0.060
890.00,0.060
891.00,0.060
892.00,0.061
893.00,0.061
894.00,0.061
895.00,0.061
896.00,0.062
897.00,0.062
898.00,0.062
899.00,0.062
900.00,0.063
