"RiverbendKolsch_50x - RawData"
"Wavelength nm.","Abs."
190.00,3.676
191.00,3.436
192.00,3.418
193.00,3.669
194.00,3.605
195.00,3.773
196.00,3.877
197.00,3.835
198.00,3.484
199.00,3.581
200.00,3.646
201.00,3.571
202.00,3.517
203.00,3.238
204.00,3.139
205.00,3.011
206.00,2.905
207.00,2.783
208.00,2.650
209.00,2.535
210.00,2.419
211.00,2.317
212.00,2.220
213.00,2.117
214.00,2.020
215.00,1.933
216.00,1.846
217.00,1.767
218.00,1.686
219.00,1.607
220.00,1.531
221.00,1.461
222.00,1.394
223.00,1.328
224.00,1.261
225.00,1.198
226.00,1.134
227.00,1.069
228.00,1.006
229.00,0.950
230.00,0.899
231.00,0.853
232.00,0.812
233.00,0.777
234.00,0.747
235.00,0.722
236.00,0.701
237.00,0.683
238.00,0.669
239.00,0.658
240.00,0.649
241.00,0.642
242.00,0.638
243.00,0.635
244.00,0.634
245.00,0.634
246.00,0.634
247.00,0.636
248.00,0.638
249.00,0.641
250.00,0.645
251.00,0.648
252.00,0.653
253.00,0.657
254.00,0.661
255.00,0.665
256.00,0.668
257.00,0.671
258.00,0.672
259.00,0.673
260.00,0.673
261.00,0.672
262.00,0.672
263.00,0.672
264.00,0.671
265.00,0.669
266.00,0.667
267.00,0.665
268.00,0.663
269.00,0.659
270.00,0.653
271.00,0.647
272.00,0.639
273.00,0.630
274.00,0.621
275.00,0.611
276.00,0.601
277.00,0.589
278.00,0.577
279.00,0.564
280.00,0.551
281.00,0.537
282.00,0.522
283.00,0.505
284.00,0.489
285.00,0.471
286.00,0.455
287.00,0.439
288.00,0.422
289.00,0.406
290.00,0.388
291.00,0.371
292.00,0.356
293.00,0.342
294.00,0.331
295.00,0.321
296.00,0.313
297.00,0.305
298.00,0.298
299.00,0.292
300.00,0.287
301.00,0.282
302.00,0.278
303.00,0.273
304.00,0.270
305.00,0.267
306.00,0.264
307.00,0.261
308.00,0.258
309.00,0.256
310.00,0.254
311.00,0.252
312.00,0.250
313.00,0.248
314.00,0.246
315.00,0.244
316.00,0.243
317.00,0.241
318.00,0.239
319.00,0.237
320.00,0.235
321.00,0.233
322.00,0.231
323.00,0.229
324.00,0.227
325.00,0.224
326.00,0.222
327.00,0.220
328.00,0.217
329.00,0.214
330.00,0.211
331.00,0.209
332.00,0.206
333.00,0.203
334.00,0.200
335.00,0.198
336.00,0.195
337.00,0.192
338.00,0.189
339.00,0.186
340.00,0.184
341.00,0.180
342.00,0.176
343.00,0.174
344.00,0.171
345.00,0.169
346.00,0.166
347.00,0.163
348.00,0.160
349.00,0.158
350.00,0.155
351.00,0.153
352.00,0.150
353.00,0.148
354.00,0.146
355.00,0.144
356.00,0.141
357.00,0.139
358.00,0.137
359.00,0.135
360.00,0.133
361.00,0.132
362.00,0.129
363.00,0.128
364.00,0.127
365.00,0.125
366.00,0.123
367.00,0.122
368.00,0.120
369.00,0.119
370.00,0.117
371.00,0.116
372.00,0.114
373.00,0.113
374.00,0.112
375.00,0.111
376.00,0.109
377.00,0.108
378.00,0.107
379.00,0.106
380.00,0.104
381.00,0.103
382.00,0.102
383.00,0.101
384.00,0.100
385.00,0.099
386.00,0.098
387.00,0.098
388.00,0.097
389.00,0.096
390.00,0.095
391.00,0.094
392.00,0.093
393.00,0.092
394.00,0.092
395.00,0.091
396.00,0.090
397.00,0.090
398.00,0.089
399.00,0.088
400.00,0.088
401.00,0.087
402.00,0.087
403.00,0.086
404.00,0.086
405.00,0.085
406.00,0.085
407.00,0.084
408.00,0.084
409.00,0.083
410.00,0.083
411.00,0.083
412.00,0.082
413.00,0.082
414.00,0.081
415.00,0.081
416.00,0.081
417.00,0.081
418.00,0.080
419.00,0.080
420.00,0.080
421.00,0.080
422.00,0.079
423.00,0.079
424.00,0.079
425.00,0.079
426.00,0.078
427.00,0.078
428.00,0.078
429.00,0.078
430.00,0.078
431.00,0.077
432.00,0.077
433.00,0.077
434.00,0.077
435.00,0.077
436.00,0.076
437.00,0.076
438.00,0.076
439.00,0.076
440.00,0.076
441.00,0.076
442.00,0.076
443.00,0.075
444.00,0.075
445.00,0.075
446.00,0.075
447.00,0.075
448.00,0.075
449.00,0.074
450.00,0.074
451.00,0.074
452.00,0.074
453.00,0.074
454.00,0.074
455.00,0.074
456.00,0.074
457.00,0.074
458.00,0.073
459.00,0.073
460.00,0.073
461.00,0.073
462.00,0.073
463.00,0.073
464.00,0.073
465.00,0.073
466.00,0.073
467.00,0.073
468.00,0.072
469.00,0.072
470.00,0.072
471.00,0.072
472.00,0.072
473.00,0.072
474.00,0.072
475.00,0.072
476.00,0.072
477.00,0.072
478.00,0.072
479.00,0.071
480.00,0.071
481.00,0.071
482.00,0.071
483.00,0.071
484.00,0.071
485.00,0.071
486.00,0.071
487.00,0.071
488.00,0.071
489.00,0.071
490.00,0.071
491.00,0.070
492.00,0.070
493.00,0.070
494.00,0.070
495.00,0.070
496.00,0.070
497.00,0.070
498.00,0.070
499.00,0.070
500.00,0.070
501.00,0.070
502.00,0.070
503.00,0.069
504.00,0.069
505.00,0.069
506.00,0.069
507.00,0.069
508.00,0.069
509.00,0.069
510.00,0.069
511.00,0.069
512.00,0.069
513.00,0.069
514.00,0.069
515.00,0.069
516.00,0.069
517.00,0.068
518.00,0.068
519.00,0.068
520.00,0.068
521.00,0.068
522.00,0.068
523.00,0.068
524.00,0.068
525.00,0.068
526.00,0.068
527.00,0.068
528.00,0.068
529.00,0.068
530.00,0.068
531.00,0.068
532.00,0.068
533.00,0.067
534.00,0.067
535.00,0.067
536.00,0.068
537.00,0.067
538.00,0.067
539.00,0.067
540.00,0.067
541.00,0.067
542.00,0.067
543.00,0.067
544.00,0.067
545.00,0.067
546.00,0.067
547.00,0.067
548.00,0.067
549.00,0.067
550.00,0.066
551.00,0.066
552.00,0.066
553.00,0.066
554.00,0.066
555.00,0.066
556.00,0.066
557.00,0.066
558.00,0.066
559.00,0.066
560.00,0.066
561.00,0.066
562.00,0.066
563.00,0.066
564.00,0.066
565.00,0.066
566.00,0.066
567.00,0.066
568.00,0.066
569.00,0.065
570.00,0.065
571.00,0.065
572.00,0.065
573.00,0.065
574.00,0.065
575.00,0.065
576.00,0.065
577.00,0.065
578.00,0.065
579.00,0.065
580.00,0.065
581.00,0.065
582.00,0.065
583.00,0.065
584.00,0.065
585.00,0.065
586.00,0.065
587.00,0.065
588.00,0.065
589.00,0.065
590.00,0.065
591.00,0.065
592.00,0.065
593.00,0.065
594.00,0.065
595.00,0.065
596.00,0.065
597.00,0.065
598.00,0.065
599.00,0.065
600.00,0.065
601.00,0.065
602.00,0.065
603.00,0.065
604.00,0.065
605.00,0.065
606.00,0.065
607.00,0.064
608.00,0.065
609.00,0.064
610.00,0.064
611.00,0.064
612.00,0.064
613.00,0.064
614.00,0.064
615.00,0.064
616.00,0.064
617.00,0.064
618.00,0.064
619.00,0.064
620.00,0.064
621.00,0.064
622.00,0.064
623.00,0.064
624.00,0.064
625.00,0.064
626.00,0.064
627.00,0.064
628.00,0.064
629.00,0.064
630.00,0.064
631.00,0.064
632.00,0.064
633.00,0.064
634.00,0.064
635.00,0.064
636.00,0.063
637.00,0.063
638.00,0.063
639.00,0.063
640.00,0.063
641.00,0.063
642.00,0.063
643.00,0.063
644.00,0.063
645.00,0.063
646.00,0.063
647.00,0.063
648.00,0.063
649.00,0.063
650.00,0.063
651.00,0.063
652.00,0.063
653.00,0.063
654.00,0.063
655.00,0.063
656.00,0.063
657.00,0.063
658.00,0.063
659.00,0.063
660.00,0.063
661.00,0.063
662.00,0.063
663.00,0.063
664.00,0.063
665.00,0.063
666.00,0.063
667.00,0.063
668.00,0.063
669.00,0.063
670.00,0.063
671.00,0.063
672.00,0.063
673.00,0.063
674.00,0.063
675.00,0.063
676.00,0.063
677.00,0.063
678.00,0.063
679.00,0.063
680.00,0.063
681.00,0.063
682.00,0.063
683.00,0.063
684.00,0.063
685.00,0.063
686.00,0.063
687.00,0.063
688.00,0.063
689.00,0.063
690.00,0.063
691.00,0.063
692.00,0.063
693.00,0.063
694.00,0.063
695.00,0.063
696.00,0.063
697.00,0.063
698.00,0.063
699.00,0.063
700.00,0.063
701.00,0.063
702.00,0.063
703.00,0.063
704.00,0.063
705.00,0.063
706.00,0.063
707.00,0.063
708.00,0.063
709.00,0.063
710.00,0.063
711.00,0.064
712.00,0.064
713.00,0.064
714.00,0.064
715.00,0.064
716.00,0.064
717.00,0.064
718.00,0.065
719.00,0.065
720.00,0.065
721.00,0.065
722.00,0.066
723.00,0.066
724.00,0.066
725.00,0.066
726.00,0.066
727.00,0.067
728.00,0.067
729.00,0.068
730.00,0.068
731.00,0.069
732.00,0.069
733.00,0.070
734.00,0.070
735.00,0.070
736.00,0.071
737.00,0.071
738.00,0.071
739.00,0.071
740.00,0.071
741.00,0.071
742.00,0.071
743.00,0.071
744.00,0.071
745.00,0.071
746.00,0.071
747.00,0.071
748.00,0.071
749.00,0.071
750.00,0.071
751.00,0.071
752.00,0.071
753.00,0.071
754.00,0.071
755.00,0.071
756.00,0.071
757.00,0.071
758.00,0.071
759.00,0.071
760.00,0.071
761.00,0.071
762.00,0.071
763.00,0.071
764.00,0.071
765.00,0.071
766.00,0.071
767.00,0.071
768.00,0.071
769.00,0.071
770.00,0.071
771.00,0.070
772.00,0.070
773.00,0.070
774.00,0.070
775.00,0.070
776.00,0.070
777.00,0.070
778.00,0.070
779.00,0.070
780.00,0.070
781.00,0.070
782.00,0.069
783.00,0.069
784.00,0.069
785.00,0.069
786.00,0.069
787.00,0.069
788.00,0.069
789.00,0.069
790.00,0.069
791.00,0.069
792.00,0.069
793.00,0.068
794.00,0.068
795.00,0.068
796.00,0.068
797.00,0.068
798.00,0.068
799.00,0.068
800.00,0.068
801.00,0.068
802.00,0.068
803.00,0.068
804.00,0.068
805.00,0.067
806.00,0.067
807.00,0.067
808.00,0.067
809.00,0.067
810.00,0.067
811.00,0.067
812.00,0.067
813.00,0.067
814.00,0.068
815.00,0.068
816.00,0.068
817.00,0.068
818.00,0.068
819.00,0.068
820.00,0.068
821.00,0.068
822.00,0.068
823.00,0.069
824.00,0.069
825.00,0.069
826.00,0.070
827.00,0.070
828.00,0.071
829.00,0.071
830.00,0.072
831.00,0.072
832.00,0.073
833.00,0.073
834.00,0.074
835.00,0.074
836.00,0.074
837.00,0.074
838.00,0.074
839.00,0.075
840.00,0.075
841.00,0.075
842.00,0.075
843.00,0.075
844.00,0.075
845.00,0.075
846.00,0.075
847.00,0.076
848.00,0.076
849.00,0.076
850.00,0.076
851.00,0.076
852.00,0.076
853.00,0.076
854.00,0.076
855.00,0.076
856.00,0.077
857.00,0.077
858.00,0.077
859.00,0.077
860.00,0.077
861.00,0.077
862.00,0.077
863.00,0.077
864.00,0.078
865.00,0.078
866.00,0.078
867.00,0.078
868.00,0.078
869.00,0.078
870.00,0.078
871.00,0.078
872.00,0.079
873.00,0.079
874.00,0.079
875.00,0.079
876.00,0.080
877.00,0.080
878.00,0.080
879.00,0.080
880.00,0.080
881.00,0.081
882.00,0.081
883.00,0.081
884.00,0.082
885.00,0.082
886.00,0.082
887.00,0.082
888.00,0.082
889.00,0.083
890.00,0.083
891.00,0.083
892.00,0.083
893.00,0.084
894.00,0.084
895.00,0.084
896.00,0.084
897.00,0.085
898.00,0.085
899.00,0.085
900.00,0.085
