"File_170130_163031 - RawData"
"Wavelength nm.","Abs."
190.00,3.373
191.00,3.275
192.00,3.178
193.00,3.262
194.00,3.580
195.00,3.487
196.00,3.388
197.00,3.478
198.00,3.408
199.00,3.358
200.00,3.404
201.00,3.284
202.00,3.201
203.00,3.129
204.00,2.983
205.00,2.862
206.00,2.733
207.00,2.610
208.00,2.487
209.00,2.385
210.00,2.283
211.00,2.180
212.00,2.088
213.00,2.000
214.00,1.912
215.00,1.830
216.00,1.751
217.00,1.673
218.00,1.600
219.00,1.524
220.00,1.453
221.00,1.387
222.00,1.323
223.00,1.259
224.00,1.193
225.00,1.130
226.00,1.065
227.00,1.000
228.00,0.937
229.00,0.880
230.00,0.826
231.00,0.776
232.00,0.731
233.00,0.691
234.00,0.657
235.00,0.628
236.00,0.603
237.00,0.582
238.00,0.565
239.00,0.550
240.00,0.538
241.00,0.529
242.00,0.523
243.00,0.519
244.00,0.516
245.00,0.514
246.00,0.514
247.00,0.514
248.00,0.515
249.00,0.517
250.00,0.519
251.00,0.522
252.00,0.525
253.00,0.529
254.00,0.532
255.00,0.536
256.00,0.540
257.00,0.544
258.00,0.546
259.00,0.549
260.00,0.551
261.00,0.554
262.00,0.557
263.00,0.559
264.00,0.561
265.00,0.563
266.00,0.564
267.00,0.565
268.00,0.566
269.00,0.565
270.00,0.564
271.00,0.562
272.00,0.560
273.00,0.557
274.00,0.553
275.00,0.548
276.00,0.542
277.00,0.535
278.00,0.527
279.00,0.519
280.00,0.511
281.00,0.502
282.00,0.492
283.00,0.480
284.00,0.468
285.00,0.456
286.00,0.445
287.00,0.434
288.00,0.422
289.00,0.411
290.00,0.398
291.00,0.386
292.00,0.376
293.00,0.366
294.00,0.358
295.00,0.350
296.00,0.343
297.00,0.337
298.00,0.331
299.00,0.325
300.00,0.320
301.00,0.314
302.00,0.310
303.00,0.305
304.00,0.301
305.00,0.296
306.00,0.292
307.00,0.288
308.00,0.284
309.00,0.280
310.00,0.276
311.00,0.272
312.00,0.268
313.00,0.265
314.00,0.261
315.00,0.258
316.00,0.254
317.00,0.251
318.00,0.248
319.00,0.244
320.00,0.240
321.00,0.237
322.00,0.233
323.00,0.229
324.00,0.226
325.00,0.221
326.00,0.218
327.00,0.214
328.00,0.209
329.00,0.205
330.00,0.201
331.00,0.198
332.00,0.193
333.00,0.189
334.00,0.186
335.00,0.182
336.00,0.178
337.00,0.174
338.00,0.171
339.00,0.167
340.00,0.164
341.00,0.159
342.00,0.156
343.00,0.153
344.00,0.149
345.00,0.146
346.00,0.143
347.00,0.140
348.00,0.137
349.00,0.134
350.00,0.132
351.00,0.129
352.00,0.127
353.00,0.124
354.00,0.122
355.00,0.120
356.00,0.117
357.00,0.115
358.00,0.113
359.00,0.111
360.00,0.109
361.00,0.108
362.00,0.105
363.00,0.104
364.00,0.103
365.00,0.101
366.00,0.100
367.00,0.098
368.00,0.097
369.00,0.095
370.00,0.094
371.00,0.093
372.00,0.091
373.00,0.090
374.00,0.089
375.00,0.088
376.00,0.087
377.00,0.086
378.00,0.085
379.00,0.083
380.00,0.082
381.00,0.081
382.00,0.080
383.00,0.079
384.00,0.078
385.00,0.077
386.00,0.077
387.00,0.076
388.00,0.075
389.00,0.074
390.00,0.073
391.00,0.073
392.00,0.072
393.00,0.071
394.00,0.070
395.00,0.070
396.00,0.069
397.00,0.068
398.00,0.068
399.00,0.067
400.00,0.067
401.00,0.066
402.00,0.065
403.00,0.065
404.00,0.065
405.00,0.064
406.00,0.064
407.00,0.063
408.00,0.063
409.00,0.062
410.00,0.062
411.00,0.061
412.00,0.061
413.00,0.060
414.00,0.060
415.00,0.060
416.00,0.059
417.00,0.059
418.00,0.059
419.00,0.058
420.00,0.058
421.00,0.057
422.00,0.057
423.00,0.057
424.00,0.057
425.00,0.056
426.00,0.056
427.00,0.056
428.00,0.055
429.00,0.055
430.00,0.055
431.00,0.055
432.00,0.054
433.00,0.054
434.00,0.054
435.00,0.053
436.00,0.053
437.00,0.053
438.00,0.053
439.00,0.052
440.00,0.052
441.00,0.052
442.00,0.052
443.00,0.051
444.00,0.051
445.00,0.051
446.00,0.051
447.00,0.050
448.00,0.050
449.00,0.050
450.00,0.050
451.00,0.050
452.00,0.049
453.00,0.049
454.00,0.049
455.00,0.049
456.00,0.049
457.00,0.048
458.00,0.048
459.00,0.048
460.00,0.048
461.00,0.048
462.00,0.048
463.00,0.047
464.00,0.047
465.00,0.047
466.00,0.047
467.00,0.047
468.00,0.046
469.00,0.046
470.00,0.046
471.00,0.046
472.00,0.046
473.00,0.046
474.00,0.045
475.00,0.045
476.00,0.045
477.00,0.045
478.00,0.045
479.00,0.045
480.00,0.044
481.00,0.044
482.00,0.044
483.00,0.044
484.00,0.044
485.00,0.044
486.00,0.043
487.00,0.043
488.00,0.043
489.00,0.043
490.00,0.043
491.00,0.043
492.00,0.043
493.00,0.042
494.00,0.042
495.00,0.042
496.00,0.042
497.00,0.042
498.00,0.042
499.00,0.042
500.00,0.042
501.00,0.042
502.00,0.041
503.00,0.041
504.00,0.041
505.00,0.041
506.00,0.041
507.00,0.041
508.00,0.041
509.00,0.041
510.00,0.041
511.00,0.040
512.00,0.040
513.00,0.040
514.00,0.040
515.00,0.040
516.00,0.040
517.00,0.040
518.00,0.040
519.00,0.040
520.00,0.040
521.00,0.040
522.00,0.040
523.00,0.039
524.00,0.039
525.00,0.039
526.00,0.039
527.00,0.039
528.00,0.039
529.00,0.039
530.00,0.039
531.00,0.039
532.00,0.039
533.00,0.039
534.00,0.039
535.00,0.039
536.00,0.039
537.00,0.038
538.00,0.038
539.00,0.038
540.00,0.038
541.00,0.038
542.00,0.038
543.00,0.038
544.00,0.038
545.00,0.038
546.00,0.038
547.00,0.038
548.00,0.038
549.00,0.038
550.00,0.038
551.00,0.038
552.00,0.037
553.00,0.037
554.00,0.037
555.00,0.037
556.00,0.037
557.00,0.037
558.00,0.037
559.00,0.037
560.00,0.037
561.00,0.037
562.00,0.037
563.00,0.037
564.00,0.037
565.00,0.037
566.00,0.037
567.00,0.037
568.00,0.037
569.00,0.037
570.00,0.037
571.00,0.037
572.00,0.037
573.00,0.037
574.00,0.037
575.00,0.037
576.00,0.036
577.00,0.036
578.00,0.036
579.00,0.036
580.00,0.036
581.00,0.036
582.00,0.036
583.00,0.036
584.00,0.036
585.00,0.036
586.00,0.036
587.00,0.036
588.00,0.036
589.00,0.036
590.00,0.036
591.00,0.036
592.00,0.036
593.00,0.036
594.00,0.036
595.00,0.036
596.00,0.036
597.00,0.036
598.00,0.036
599.00,0.036
600.00,0.036
601.00,0.036
602.00,0.036
603.00,0.036
604.00,0.036
605.00,0.036
606.00,0.036
607.00,0.036
608.00,0.036
609.00,0.036
610.00,0.036
611.00,0.036
612.00,0.036
613.00,0.036
614.00,0.036
615.00,0.036
616.00,0.036
617.00,0.036
618.00,0.036
619.00,0.036
620.00,0.036
621.00,0.036
622.00,0.036
623.00,0.036
624.00,0.036
625.00,0.036
626.00,0.036
627.00,0.036
628.00,0.036
629.00,0.036
630.00,0.036
631.00,0.036
632.00,0.036
633.00,0.036
634.00,0.036
635.00,0.036
636.00,0.035
637.00,0.035
638.00,0.035
639.00,0.035
640.00,0.036
641.00,0.035
642.00,0.035
643.00,0.035
644.00,0.035
645.00,0.035
646.00,0.035
647.00,0.035
648.00,0.035
649.00,0.035
650.00,0.035
651.00,0.035
652.00,0.035
653.00,0.035
654.00,0.035
655.00,0.035
656.00,0.036
657.00,0.035
658.00,0.035
659.00,0.036
660.00,0.036
661.00,0.036
662.00,0.036
663.00,0.036
664.00,0.035
665.00,0.035
666.00,0.035
667.00,0.035
668.00,0.035
669.00,0.035
670.00,0.035
671.00,0.035
672.00,0.035
673.00,0.035
674.00,0.035
675.00,0.035
676.00,0.035
677.00,0.035
678.00,0.035
679.00,0.035
680.00,0.035
681.00,0.035
682.00,0.035
683.00,0.035
684.00,0.035
685.00,0.035
686.00,0.035
687.00,0.035
688.00,0.035
689.00,0.036
690.00,0.036
691.00,0.036
692.00,0.036
693.00,0.036
694.00,0.036
695.00,0.036
696.00,0.036
697.00,0.036
698.00,0.036
699.00,0.036
700.00,0.036
701.00,0.036
702.00,0.036
703.00,0.036
704.00,0.036
705.00,0.036
706.00,0.036
707.00,0.036
708.00,0.036
709.00,0.036
710.00,0.037
711.00,0.037
712.00,0.037
713.00,0.037
714.00,0.037
715.00,0.037
716.00,0.037
717.00,0.037
718.00,0.038
719.00,0.038
720.00,0.038
721.00,0.038
722.00,0.038
723.00,0.039
724.00,0.039
725.00,0.039
726.00,0.039
727.00,0.040
728.00,0.040
729.00,0.040
730.00,0.041
731.00,0.041
732.00,0.042
733.00,0.042
734.00,0.043
735.00,0.043
736.00,0.043
737.00,0.043
738.00,0.044
739.00,0.044
740.00,0.044
741.00,0.044
742.00,0.044
743.00,0.044
744.00,0.044
745.00,0.044
746.00,0.044
747.00,0.044
748.00,0.044
749.00,0.044
750.00,0.044
751.00,0.044
752.00,0.044
753.00,0.044
754.00,0.044
755.00,0.044
756.00,0.044
757.00,0.044
758.00,0.044
759.00,0.044
760.00,0.045
761.00,0.044
762.00,0.044
763.00,0.044
764.00,0.044
765.00,0.044
766.00,0.044
767.00,0.044
768.00,0.044
769.00,0.044
770.00,0.044
771.00,0.044
772.00,0.044
773.00,0.044
774.00,0.044
775.00,0.044
776.00,0.044
777.00,0.044
778.00,0.044
779.00,0.044
780.00,0.044
781.00,0.044
782.00,0.044
783.00,0.044
784.00,0.043
785.00,0.043
786.00,0.043
787.00,0.043
788.00,0.043
789.00,0.043
790.00,0.043
791.00,0.043
792.00,0.043
793.00,0.043
794.00,0.043
795.00,0.043
796.00,0.043
797.00,0.042
798.00,0.042
799.00,0.042
800.00,0.042
801.00,0.042
802.00,0.042
803.00,0.042
804.00,0.042
805.00,0.042
806.00,0.042
807.00,0.042
808.00,0.042
809.00,0.042
810.00,0.042
811.00,0.042
812.00,0.042
813.00,0.042
814.00,0.042
815.00,0.042
816.00,0.042
817.00,0.042
818.00,0.043
819.00,0.043
820.00,0.043
821.00,0.043
822.00,0.043
823.00,0.043
824.00,0.044
825.00,0.044
826.00,0.045
827.00,0.045
828.00,0.046
829.00,0.046
830.00,0.047
831.00,0.047
832.00,0.047
833.00,0.048
834.00,0.048
835.00,0.048
836.00,0.049
837.00,0.049
838.00,0.049
839.00,0.049
840.00,0.049
841.00,0.049
842.00,0.049
843.00,0.050
844.00,0.050
845.00,0.050
846.00,0.050
847.00,0.050
848.00,0.050
849.00,0.051
850.00,0.051
851.00,0.051
852.00,0.051
853.00,0.051
854.00,0.051
855.00,0.051
856.00,0.052
857.00,0.052
858.00,0.052
859.00,0.052
860.00,0.052
861.00,0.052
862.00,0.052
863.00,0.052
864.00,0.053
865.00,0.053
866.00,0.053
867.00,0.053
868.00,0.053
869.00,0.053
870.00,0.054
871.00,0.054
872.00,0.054
873.00,0.054
874.00,0.054
875.00,0.054
876.00,0.055
877.00,0.055
878.00,0.055
879.00,0.055
880.00,0.056
881.00,0.056
882.00,0.056
883.00,0.056
884.00,0.057
885.00,0.057
886.00,0.057
887.00,0.057
888.00,0.058
889.00,0.058
890.00,0.058
891.00,0.058
892.00,0.059
893.00,0.059
894.00,0.059
895.00,0.059
896.00,0.059
897.00,0.060
898.00,0.060
899.00,0.060
900.00,0.060
