"death_valley_50x - RawData"
"Wavelength nm.","Abs."
190.00,3.106
191.00,3.455
192.00,3.677
193.00,3.729
194.00,3.814
195.00,3.483
196.00,3.815
197.00,3.927
198.00,3.931
199.00,3.728
200.00,3.660
201.00,3.986
202.00,3.917
203.00,3.910
204.00,3.922
205.00,3.960
206.00,3.947
207.00,3.884
208.00,3.933
209.00,3.741
210.00,3.822
211.00,3.705
212.00,3.648
213.00,3.545
214.00,3.442
215.00,3.253
216.00,3.164
217.00,3.027
218.00,2.893
219.00,2.747
220.00,2.605
221.00,2.477
222.00,2.354
223.00,2.231
224.00,2.106
225.00,1.987
226.00,1.864
227.00,1.743
228.00,1.624
229.00,1.516
230.00,1.414
231.00,1.322
232.00,1.242
233.00,1.171
234.00,1.112
235.00,1.061
236.00,1.019
237.00,0.985
238.00,0.957
239.00,0.935
240.00,0.918
241.00,0.906
242.00,0.899
243.00,0.894
244.00,0.893
245.00,0.893
246.00,0.896
247.00,0.899
248.00,0.904
249.00,0.910
250.00,0.917
251.00,0.924
252.00,0.932
253.00,0.940
254.00,0.947
255.00,0.955
256.00,0.962
257.00,0.969
258.00,0.974
259.00,0.978
260.00,0.981
261.00,0.983
262.00,0.985
263.00,0.987
264.00,0.988
265.00,0.987
266.00,0.986
267.00,0.984
268.00,0.980
269.00,0.975
270.00,0.967
271.00,0.957
272.00,0.947
273.00,0.934
274.00,0.919
275.00,0.904
276.00,0.887
277.00,0.870
278.00,0.850
279.00,0.831
280.00,0.811
281.00,0.790
282.00,0.768
283.00,0.744
284.00,0.719
285.00,0.693
286.00,0.670
287.00,0.648
288.00,0.626
289.00,0.604
290.00,0.580
291.00,0.557
292.00,0.537
293.00,0.520
294.00,0.505
295.00,0.491
296.00,0.480
297.00,0.470
298.00,0.460
299.00,0.452
300.00,0.444
301.00,0.437
302.00,0.431
303.00,0.425
304.00,0.419
305.00,0.414
306.00,0.408
307.00,0.403
308.00,0.398
309.00,0.394
310.00,0.389
311.00,0.385
312.00,0.380
313.00,0.376
314.00,0.372
315.00,0.368
316.00,0.364
317.00,0.360
318.00,0.356
319.00,0.352
320.00,0.347
321.00,0.342
322.00,0.338
323.00,0.333
324.00,0.328
325.00,0.323
326.00,0.317
327.00,0.312
328.00,0.307
329.00,0.301
330.00,0.295
331.00,0.289
332.00,0.284
333.00,0.278
334.00,0.272
335.00,0.266
336.00,0.261
337.00,0.255
338.00,0.249
339.00,0.244
340.00,0.238
341.00,0.232
342.00,0.226
343.00,0.220
344.00,0.215
345.00,0.210
346.00,0.205
347.00,0.200
348.00,0.195
349.00,0.190
350.00,0.186
351.00,0.182
352.00,0.177
353.00,0.174
354.00,0.170
355.00,0.166
356.00,0.162
357.00,0.159
358.00,0.155
359.00,0.152
360.00,0.149
361.00,0.146
362.00,0.143
363.00,0.140
364.00,0.137
365.00,0.135
366.00,0.132
367.00,0.130
368.00,0.128
369.00,0.126
370.00,0.124
371.00,0.121
372.00,0.119
373.00,0.117
374.00,0.115
375.00,0.113
376.00,0.111
377.00,0.110
378.00,0.108
379.00,0.106
380.00,0.104
381.00,0.103
382.00,0.101
383.00,0.100
384.00,0.098
385.00,0.097
386.00,0.095
387.00,0.094
388.00,0.093
389.00,0.092
390.00,0.090
391.00,0.089
392.00,0.088
393.00,0.087
394.00,0.086
395.00,0.085
396.00,0.084
397.00,0.083
398.00,0.082
399.00,0.081
400.00,0.080
401.00,0.079
402.00,0.079
403.00,0.078
404.00,0.077
405.00,0.077
406.00,0.076
407.00,0.075
408.00,0.074
409.00,0.074
410.00,0.073
411.00,0.073
412.00,0.072
413.00,0.072
414.00,0.071
415.00,0.071
416.00,0.070
417.00,0.070
418.00,0.070
419.00,0.069
420.00,0.069
421.00,0.068
422.00,0.068
423.00,0.068
424.00,0.067
425.00,0.067
426.00,0.066
427.00,0.066
428.00,0.066
429.00,0.065
430.00,0.065
431.00,0.065
432.00,0.065
433.00,0.064
434.00,0.064
435.00,0.064
436.00,0.063
437.00,0.063
438.00,0.063
439.00,0.063
440.00,0.062
441.00,0.062
442.00,0.062
443.00,0.061
444.00,0.061
445.00,0.061
446.00,0.061
447.00,0.061
448.00,0.060
449.00,0.060
450.00,0.060
451.00,0.060
452.00,0.059
453.00,0.059
454.00,0.059
455.00,0.059
456.00,0.059
457.00,0.058
458.00,0.058
459.00,0.058
460.00,0.058
461.00,0.058
462.00,0.057
463.00,0.057
464.00,0.057
465.00,0.057
466.00,0.057
467.00,0.057
468.00,0.056
469.00,0.056
470.00,0.056
471.00,0.056
472.00,0.056
473.00,0.056
474.00,0.055
475.00,0.055
476.00,0.055
477.00,0.055
478.00,0.055
479.00,0.054
480.00,0.054
481.00,0.054
482.00,0.054
483.00,0.054
484.00,0.054
485.00,0.053
486.00,0.053
487.00,0.053
488.00,0.053
489.00,0.053
490.00,0.053
491.00,0.053
492.00,0.052
493.00,0.052
494.00,0.052
495.00,0.052
496.00,0.052
497.00,0.052
498.00,0.052
499.00,0.051
500.00,0.051
501.00,0.051
502.00,0.051
503.00,0.051
504.00,0.051
505.00,0.051
506.00,0.051
507.00,0.050
508.00,0.050
509.00,0.050
510.00,0.050
511.00,0.050
512.00,0.050
513.00,0.050
514.00,0.050
515.00,0.049
516.00,0.049
517.00,0.049
518.00,0.049
519.00,0.049
520.00,0.049
521.00,0.049
522.00,0.049
523.00,0.049
524.00,0.048
525.00,0.048
526.00,0.048
527.00,0.048
528.00,0.048
529.00,0.048
530.00,0.048
531.00,0.048
532.00,0.048
533.00,0.048
534.00,0.047
535.00,0.047
536.00,0.048
537.00,0.047
538.00,0.047
539.00,0.047
540.00,0.047
541.00,0.047
542.00,0.047
543.00,0.047
544.00,0.046
545.00,0.046
546.00,0.046
547.00,0.046
548.00,0.046
549.00,0.046
550.00,0.046
551.00,0.046
552.00,0.046
553.00,0.046
554.00,0.046
555.00,0.046
556.00,0.045
557.00,0.045
558.00,0.045
559.00,0.045
560.00,0.045
561.00,0.045
562.00,0.045
563.00,0.045
564.00,0.045
565.00,0.045
566.00,0.045
567.00,0.045
568.00,0.045
569.00,0.045
570.00,0.045
571.00,0.044
572.00,0.044
573.00,0.044
574.00,0.044
575.00,0.044
576.00,0.044
577.00,0.044
578.00,0.044
579.00,0.044
580.00,0.044
581.00,0.044
582.00,0.044
583.00,0.044
584.00,0.044
585.00,0.044
586.00,0.044
587.00,0.044
588.00,0.044
589.00,0.044
590.00,0.044
591.00,0.044
592.00,0.044
593.00,0.044
594.00,0.043
595.00,0.044
596.00,0.043
597.00,0.043
598.00,0.043
599.00,0.043
600.00,0.043
601.00,0.043
602.00,0.043
603.00,0.044
604.00,0.044
605.00,0.043
606.00,0.043
607.00,0.043
608.00,0.043
609.00,0.043
610.00,0.043
611.00,0.043
612.00,0.043
613.00,0.043
614.00,0.043
615.00,0.043
616.00,0.043
617.00,0.043
618.00,0.043
619.00,0.043
620.00,0.043
621.00,0.043
622.00,0.043
623.00,0.043
624.00,0.043
625.00,0.042
626.00,0.043
627.00,0.042
628.00,0.042
629.00,0.042
630.00,0.042
631.00,0.042
632.00,0.042
633.00,0.042
634.00,0.042
635.00,0.042
636.00,0.042
637.00,0.042
638.00,0.042
639.00,0.042
640.00,0.042
641.00,0.042
642.00,0.042
643.00,0.042
644.00,0.042
645.00,0.042
646.00,0.042
647.00,0.042
648.00,0.042
649.00,0.042
650.00,0.042
651.00,0.042
652.00,0.042
653.00,0.042
654.00,0.042
655.00,0.042
656.00,0.042
657.00,0.042
658.00,0.042
659.00,0.042
660.00,0.042
661.00,0.042
662.00,0.042
663.00,0.042
664.00,0.042
665.00,0.042
666.00,0.041
667.00,0.041
668.00,0.041
669.00,0.041
670.00,0.041
671.00,0.041
672.00,0.041
673.00,0.041
674.00,0.041
675.00,0.041
676.00,0.041
677.00,0.041
678.00,0.041
679.00,0.041
680.00,0.041
681.00,0.041
682.00,0.041
683.00,0.041
684.00,0.041
685.00,0.041
686.00,0.041
687.00,0.041
688.00,0.041
689.00,0.041
690.00,0.041
691.00,0.041
692.00,0.041
693.00,0.041
694.00,0.041
695.00,0.041
696.00,0.041
697.00,0.041
698.00,0.041
699.00,0.041
700.00,0.041
701.00,0.041
702.00,0.041
703.00,0.041
704.00,0.041
705.00,0.041
706.00,0.042
707.00,0.042
708.00,0.042
709.00,0.042
710.00,0.042
711.00,0.042
712.00,0.042
713.00,0.042
714.00,0.042
715.00,0.042
716.00,0.043
717.00,0.043
718.00,0.043
719.00,0.043
720.00,0.043
721.00,0.044
722.00,0.044
723.00,0.044
724.00,0.044
725.00,0.044
726.00,0.045
727.00,0.045
728.00,0.045
729.00,0.046
730.00,0.046
731.00,0.047
732.00,0.047
733.00,0.048
734.00,0.048
735.00,0.048
736.00,0.049
737.00,0.049
738.00,0.049
739.00,0.049
740.00,0.049
741.00,0.049
742.00,0.049
743.00,0.050
744.00,0.049
745.00,0.049
746.00,0.049
747.00,0.049
748.00,0.049
749.00,0.049
750.00,0.049
751.00,0.049
752.00,0.049
753.00,0.050
754.00,0.050
755.00,0.049
756.00,0.049
757.00,0.049
758.00,0.049
759.00,0.049
760.00,0.050
761.00,0.049
762.00,0.049
763.00,0.049
764.00,0.049
765.00,0.049
766.00,0.049
767.00,0.049
768.00,0.049
769.00,0.049
770.00,0.049
771.00,0.049
772.00,0.049
773.00,0.049
774.00,0.049
775.00,0.049
776.00,0.049
777.00,0.048
778.00,0.048
779.00,0.048
780.00,0.048
781.00,0.048
782.00,0.048
783.00,0.048
784.00,0.048
785.00,0.048
786.00,0.048
787.00,0.048
788.00,0.048
789.00,0.047
790.00,0.047
791.00,0.047
792.00,0.047
793.00,0.047
794.00,0.047
795.00,0.047
796.00,0.047
797.00,0.047
798.00,0.047
799.00,0.046
800.00,0.046
801.00,0.046
802.00,0.046
803.00,0.046
804.00,0.046
805.00,0.046
806.00,0.046
807.00,0.046
808.00,0.046
809.00,0.046
810.00,0.046
811.00,0.046
812.00,0.046
813.00,0.046
814.00,0.046
815.00,0.046
816.00,0.046
817.00,0.046
818.00,0.046
819.00,0.046
820.00,0.047
821.00,0.047
822.00,0.047
823.00,0.047
824.00,0.047
825.00,0.048
826.00,0.048
827.00,0.049
828.00,0.049
829.00,0.050
830.00,0.050
831.00,0.051
832.00,0.051
833.00,0.052
834.00,0.052
835.00,0.052
836.00,0.052
837.00,0.053
838.00,0.053
839.00,0.053
840.00,0.053
841.00,0.053
842.00,0.053
843.00,0.053
844.00,0.053
845.00,0.054
846.00,0.054
847.00,0.054
848.00,0.054
849.00,0.054
850.00,0.054
851.00,0.054
852.00,0.054
853.00,0.054
854.00,0.055
855.00,0.055
856.00,0.055
857.00,0.055
858.00,0.055
859.00,0.055
860.00,0.055
861.00,0.055
862.00,0.056
863.00,0.056
864.00,0.056
865.00,0.056
866.00,0.056
867.00,0.056
868.00,0.056
869.00,0.057
870.00,0.057
871.00,0.057
872.00,0.057
873.00,0.057
874.00,0.057
875.00,0.058
876.00,0.058
877.00,0.058
878.00,0.058
879.00,0.058
880.00,0.059
881.00,0.059
882.00,0.059
883.00,0.059
884.00,0.060
885.00,0.060
886.00,0.060
887.00,0.060
888.00,0.061
889.00,0.061
890.00,0.061
891.00,0.061
892.00,0.062
893.00,0.062
894.00,0.062
895.00,0.062
896.00,0.063
897.00,0.063
898.00,0.063
899.00,0.063
900.00,0.063
