"SaintArnauldVlimeuse_50x - RawData"
"Wavelength nm.","Abs."
190.00,3.793
191.00,3.625
192.00,3.660
193.00,3.648
194.00,3.758
195.00,3.619
196.00,3.692
197.00,3.980
198.00,3.736
199.00,3.826
200.00,3.825
201.00,3.804
202.00,3.779
203.00,3.926
204.00,3.951
205.00,3.795
206.00,3.840
207.00,3.833
208.00,3.889
209.00,3.868
210.00,3.702
211.00,3.595
212.00,3.438
213.00,3.364
214.00,3.350
215.00,3.195
216.00,3.037
217.00,2.986
218.00,2.860
219.00,2.700
220.00,2.564
221.00,2.443
222.00,2.334
223.00,2.225
224.00,2.115
225.00,2.010
226.00,1.903
227.00,1.795
228.00,1.691
229.00,1.596
230.00,1.506
231.00,1.424
232.00,1.351
233.00,1.285
234.00,1.229
235.00,1.179
236.00,1.138
237.00,1.104
238.00,1.075
239.00,1.052
240.00,1.033
241.00,1.019
242.00,1.010
243.00,1.005
244.00,1.002
245.00,1.002
246.00,1.003
247.00,1.006
248.00,1.010
249.00,1.015
250.00,1.020
251.00,1.026
252.00,1.033
253.00,1.039
254.00,1.046
255.00,1.052
256.00,1.059
257.00,1.064
258.00,1.068
259.00,1.069
260.00,1.071
261.00,1.072
262.00,1.072
263.00,1.073
264.00,1.073
265.00,1.072
266.00,1.070
267.00,1.067
268.00,1.062
269.00,1.057
270.00,1.048
271.00,1.039
272.00,1.030
273.00,1.018
274.00,1.006
275.00,0.992
276.00,0.977
277.00,0.961
278.00,0.943
279.00,0.925
280.00,0.906
281.00,0.887
282.00,0.867
283.00,0.846
284.00,0.824
285.00,0.801
286.00,0.781
287.00,0.760
288.00,0.740
289.00,0.719
290.00,0.697
291.00,0.675
292.00,0.657
293.00,0.640
294.00,0.626
295.00,0.612
296.00,0.601
297.00,0.591
298.00,0.581
299.00,0.571
300.00,0.563
301.00,0.555
302.00,0.547
303.00,0.539
304.00,0.532
305.00,0.525
306.00,0.519
307.00,0.511
308.00,0.505
309.00,0.499
310.00,0.492
311.00,0.486
312.00,0.479
313.00,0.473
314.00,0.467
315.00,0.461
316.00,0.455
317.00,0.449
318.00,0.442
319.00,0.436
320.00,0.430
321.00,0.423
322.00,0.416
323.00,0.410
324.00,0.403
325.00,0.397
326.00,0.389
327.00,0.383
328.00,0.376
329.00,0.369
330.00,0.362
331.00,0.354
332.00,0.347
333.00,0.340
334.00,0.332
335.00,0.326
336.00,0.319
337.00,0.312
338.00,0.306
339.00,0.299
340.00,0.293
341.00,0.285
342.00,0.278
343.00,0.272
344.00,0.266
345.00,0.261
346.00,0.255
347.00,0.250
348.00,0.244
349.00,0.238
350.00,0.232
351.00,0.227
352.00,0.223
353.00,0.218
354.00,0.213
355.00,0.208
356.00,0.204
357.00,0.200
358.00,0.196
359.00,0.192
360.00,0.188
361.00,0.184
362.00,0.181
363.00,0.177
364.00,0.174
365.00,0.171
366.00,0.168
367.00,0.165
368.00,0.162
369.00,0.160
370.00,0.157
371.00,0.154
372.00,0.152
373.00,0.149
374.00,0.147
375.00,0.145
376.00,0.142
377.00,0.140
378.00,0.138
379.00,0.136
380.00,0.134
381.00,0.132
382.00,0.130
383.00,0.128
384.00,0.126
385.00,0.125
386.00,0.123
387.00,0.121
388.00,0.120
389.00,0.118
390.00,0.117
391.00,0.115
392.00,0.114
393.00,0.112
394.00,0.111
395.00,0.110
396.00,0.109
397.00,0.108
398.00,0.106
399.00,0.105
400.00,0.104
401.00,0.103
402.00,0.102
403.00,0.101
404.00,0.100
405.00,0.099
406.00,0.098
407.00,0.097
408.00,0.096
409.00,0.096
410.00,0.095
411.00,0.094
412.00,0.093
413.00,0.093
414.00,0.092
415.00,0.091
416.00,0.090
417.00,0.090
418.00,0.089
419.00,0.088
420.00,0.088
421.00,0.087
422.00,0.086
423.00,0.086
424.00,0.085
425.00,0.084
426.00,0.084
427.00,0.083
428.00,0.083
429.00,0.082
430.00,0.082
431.00,0.081
432.00,0.081
433.00,0.080
434.00,0.080
435.00,0.079
436.00,0.079
437.00,0.078
438.00,0.078
439.00,0.077
440.00,0.077
441.00,0.076
442.00,0.076
443.00,0.075
444.00,0.075
445.00,0.075
446.00,0.074
447.00,0.074
448.00,0.073
449.00,0.073
450.00,0.073
451.00,0.072
452.00,0.072
453.00,0.072
454.00,0.071
455.00,0.071
456.00,0.071
457.00,0.070
458.00,0.070
459.00,0.069
460.00,0.069
461.00,0.069
462.00,0.068
463.00,0.068
464.00,0.068
465.00,0.067
466.00,0.067
467.00,0.067
468.00,0.066
469.00,0.066
470.00,0.066
471.00,0.066
472.00,0.065
473.00,0.065
474.00,0.065
475.00,0.064
476.00,0.064
477.00,0.064
478.00,0.063
479.00,0.063
480.00,0.063
481.00,0.063
482.00,0.062
483.00,0.062
484.00,0.062
485.00,0.061
486.00,0.061
487.00,0.061
488.00,0.061
489.00,0.060
490.00,0.060
491.00,0.060
492.00,0.060
493.00,0.059
494.00,0.059
495.00,0.059
496.00,0.059
497.00,0.058
498.00,0.058
499.00,0.058
500.00,0.058
501.00,0.057
502.00,0.057
503.00,0.057
504.00,0.057
505.00,0.057
506.00,0.056
507.00,0.056
508.00,0.056
509.00,0.056
510.00,0.056
511.00,0.055
512.00,0.055
513.00,0.055
514.00,0.055
515.00,0.055
516.00,0.055
517.00,0.054
518.00,0.054
519.00,0.054
520.00,0.054
521.00,0.054
522.00,0.053
523.00,0.053
524.00,0.053
525.00,0.053
526.00,0.053
527.00,0.053
528.00,0.053
529.00,0.052
530.00,0.052
531.00,0.052
532.00,0.052
533.00,0.052
534.00,0.052
535.00,0.052
536.00,0.052
537.00,0.051
538.00,0.051
539.00,0.051
540.00,0.051
541.00,0.051
542.00,0.051
543.00,0.051
544.00,0.050
545.00,0.050
546.00,0.050
547.00,0.050
548.00,0.050
549.00,0.050
550.00,0.050
551.00,0.050
552.00,0.050
553.00,0.050
554.00,0.049
555.00,0.049
556.00,0.049
557.00,0.049
558.00,0.049
559.00,0.049
560.00,0.049
561.00,0.049
562.00,0.049
563.00,0.048
564.00,0.048
565.00,0.048
566.00,0.048
567.00,0.048
568.00,0.048
569.00,0.048
570.00,0.048
571.00,0.048
572.00,0.048
573.00,0.048
574.00,0.047
575.00,0.048
576.00,0.047
577.00,0.047
578.00,0.047
579.00,0.047
580.00,0.047
581.00,0.047
582.00,0.047
583.00,0.047
584.00,0.047
585.00,0.047
586.00,0.047
587.00,0.047
588.00,0.047
589.00,0.047
590.00,0.047
591.00,0.047
592.00,0.047
593.00,0.047
594.00,0.047
595.00,0.047
596.00,0.046
597.00,0.046
598.00,0.046
599.00,0.046
600.00,0.046
601.00,0.046
602.00,0.046
603.00,0.046
604.00,0.046
605.00,0.046
606.00,0.046
607.00,0.046
608.00,0.046
609.00,0.046
610.00,0.046
611.00,0.046
612.00,0.046
613.00,0.046
614.00,0.046
615.00,0.046
616.00,0.046
617.00,0.046
618.00,0.045
619.00,0.045
620.00,0.045
621.00,0.045
622.00,0.045
623.00,0.045
624.00,0.045
625.00,0.045
626.00,0.045
627.00,0.045
628.00,0.045
629.00,0.045
630.00,0.045
631.00,0.045
632.00,0.045
633.00,0.045
634.00,0.045
635.00,0.045
636.00,0.045
637.00,0.045
638.00,0.045
639.00,0.044
640.00,0.045
641.00,0.044
642.00,0.044
643.00,0.044
644.00,0.044
645.00,0.044
646.00,0.044
647.00,0.044
648.00,0.044
649.00,0.044
650.00,0.044
651.00,0.044
652.00,0.044
653.00,0.044
654.00,0.044
655.00,0.044
656.00,0.044
657.00,0.044
658.00,0.044
659.00,0.044
660.00,0.044
661.00,0.044
662.00,0.044
663.00,0.044
664.00,0.044
665.00,0.044
666.00,0.044
667.00,0.044
668.00,0.044
669.00,0.044
670.00,0.044
671.00,0.044
672.00,0.044
673.00,0.044
674.00,0.044
675.00,0.044
676.00,0.044
677.00,0.044
678.00,0.044
679.00,0.044
680.00,0.044
681.00,0.044
682.00,0.044
683.00,0.044
684.00,0.044
685.00,0.044
686.00,0.043
687.00,0.043
688.00,0.043
689.00,0.043
690.00,0.043
691.00,0.043
692.00,0.044
693.00,0.044
694.00,0.044
695.00,0.043
696.00,0.044
697.00,0.044
698.00,0.044
699.00,0.044
700.00,0.044
701.00,0.044
702.00,0.044
703.00,0.044
704.00,0.044
705.00,0.044
706.00,0.044
707.00,0.044
708.00,0.044
709.00,0.044
710.00,0.044
711.00,0.044
712.00,0.044
713.00,0.045
714.00,0.045
715.00,0.045
716.00,0.045
717.00,0.045
718.00,0.045
719.00,0.046
720.00,0.046
721.00,0.046
722.00,0.046
723.00,0.046
724.00,0.047
725.00,0.047
726.00,0.047
727.00,0.047
728.00,0.048
729.00,0.048
730.00,0.049
731.00,0.049
732.00,0.050
733.00,0.050
734.00,0.050
735.00,0.051
736.00,0.051
737.00,0.051
738.00,0.051
739.00,0.052
740.00,0.052
741.00,0.052
742.00,0.052
743.00,0.052
744.00,0.052
745.00,0.052
746.00,0.052
747.00,0.052
748.00,0.052
749.00,0.052
750.00,0.052
751.00,0.052
752.00,0.052
753.00,0.052
754.00,0.052
755.00,0.052
756.00,0.052
757.00,0.052
758.00,0.052
759.00,0.052
760.00,0.052
761.00,0.052
762.00,0.052
763.00,0.052
764.00,0.052
765.00,0.051
766.00,0.051
767.00,0.051
768.00,0.051
769.00,0.051
770.00,0.051
771.00,0.051
772.00,0.051
773.00,0.051
774.00,0.051
775.00,0.051
776.00,0.051
777.00,0.051
778.00,0.051
779.00,0.051
780.00,0.050
781.00,0.050
782.00,0.050
783.00,0.050
784.00,0.050
785.00,0.050
786.00,0.050
787.00,0.050
788.00,0.050
789.00,0.050
790.00,0.049
791.00,0.049
792.00,0.049
793.00,0.049
794.00,0.049
795.00,0.049
796.00,0.049
797.00,0.049
798.00,0.049
799.00,0.048
800.00,0.048
801.00,0.048
802.00,0.048
803.00,0.048
804.00,0.048
805.00,0.048
806.00,0.048
807.00,0.048
808.00,0.048
809.00,0.048
810.00,0.048
811.00,0.048
812.00,0.048
813.00,0.048
814.00,0.048
815.00,0.048
816.00,0.048
817.00,0.048
818.00,0.048
819.00,0.048
820.00,0.048
821.00,0.049
822.00,0.049
823.00,0.049
824.00,0.049
825.00,0.050
826.00,0.050
827.00,0.051
828.00,0.051
829.00,0.052
830.00,0.052
831.00,0.053
832.00,0.053
833.00,0.054
834.00,0.054
835.00,0.054
836.00,0.054
837.00,0.054
838.00,0.055
839.00,0.055
840.00,0.055
841.00,0.055
842.00,0.055
843.00,0.055
844.00,0.055
845.00,0.055
846.00,0.056
847.00,0.056
848.00,0.056
849.00,0.056
850.00,0.056
851.00,0.056
852.00,0.056
853.00,0.056
854.00,0.056
855.00,0.057
856.00,0.057
857.00,0.057
858.00,0.057
859.00,0.057
860.00,0.057
861.00,0.057
862.00,0.057
863.00,0.058
864.00,0.058
865.00,0.058
866.00,0.058
867.00,0.058
868.00,0.058
869.00,0.058
870.00,0.059
871.00,0.059
872.00,0.059
873.00,0.059
874.00,0.059
875.00,0.059
876.00,0.060
877.00,0.060
878.00,0.060
879.00,0.060
880.00,0.060
881.00,0.061
882.00,0.061
883.00,0.061
884.00,0.061
885.00,0.062
886.00,0.062
887.00,0.062
888.00,0.062
889.00,0.063
890.00,0.063
891.00,0.063
892.00,0.063
893.00,0.064
894.00,0.064
895.00,0.064
896.00,0.064
897.00,0.064
898.00,0.065
899.00,0.065
900.00,0.065
