"SantropolMontrealaise_100x - RawData"
"Wavelength nm.","Abs."
190.00,2.333
191.00,2.407
192.00,2.411
193.00,2.468
194.00,2.458
195.00,2.424
196.00,2.416
197.00,2.377
198.00,2.335
199.00,2.327
200.00,2.298
201.00,2.265
202.00,2.228
203.00,2.192
204.00,2.150
205.00,2.091
206.00,2.034
207.00,1.973
208.00,1.906
209.00,1.839
210.00,1.772
211.00,1.709
212.00,1.651
213.00,1.589
214.00,1.534
215.00,1.478
216.00,1.422
217.00,1.366
218.00,1.312
219.00,1.260
220.00,1.210
221.00,1.164
222.00,1.119
223.00,1.076
224.00,1.035
225.00,0.998
226.00,0.964
227.00,0.933
228.00,0.904
229.00,0.878
230.00,0.853
231.00,0.830
232.00,0.807
233.00,0.786
234.00,0.765
235.00,0.746
236.00,0.727
237.00,0.710
238.00,0.694
239.00,0.679
240.00,0.666
241.00,0.654
242.00,0.645
243.00,0.636
244.00,0.629
245.00,0.623
246.00,0.617
247.00,0.613
248.00,0.609
249.00,0.607
250.00,0.605
251.00,0.604
252.00,0.604
253.00,0.603
254.00,0.604
255.00,0.605
256.00,0.607
257.00,0.610
258.00,0.613
259.00,0.617
260.00,0.621
261.00,0.625
262.00,0.630
263.00,0.636
264.00,0.643
265.00,0.649
266.00,0.654
267.00,0.658
268.00,0.662
269.00,0.666
270.00,0.670
271.00,0.674
272.00,0.678
273.00,0.681
274.00,0.682
275.00,0.682
276.00,0.681
277.00,0.680
278.00,0.677
279.00,0.674
280.00,0.669
281.00,0.663
282.00,0.656
283.00,0.648
284.00,0.639
285.00,0.628
286.00,0.617
287.00,0.606
288.00,0.594
289.00,0.581
290.00,0.569
291.00,0.556
292.00,0.545
293.00,0.534
294.00,0.524
295.00,0.515
296.00,0.507
297.00,0.500
298.00,0.493
299.00,0.487
300.00,0.482
301.00,0.476
302.00,0.472
303.00,0.467
304.00,0.464
305.00,0.460
306.00,0.457
307.00,0.454
308.00,0.451
309.00,0.449
310.00,0.447
311.00,0.446
312.00,0.444
313.00,0.443
314.00,0.442
315.00,0.441
316.00,0.440
317.00,0.439
318.00,0.438
319.00,0.437
320.00,0.436
321.00,0.434
322.00,0.432
323.00,0.430
324.00,0.427
325.00,0.424
326.00,0.421
327.00,0.417
328.00,0.413
329.00,0.409
330.00,0.404
331.00,0.398
332.00,0.393
333.00,0.387
334.00,0.380
335.00,0.373
336.00,0.367
337.00,0.360
338.00,0.352
339.00,0.345
340.00,0.338
341.00,0.328
342.00,0.320
343.00,0.312
344.00,0.304
345.00,0.297
346.00,0.289
347.00,0.281
348.00,0.273
349.00,0.265
350.00,0.258
351.00,0.251
352.00,0.243
353.00,0.237
354.00,0.230
355.00,0.223
356.00,0.217
357.00,0.211
358.00,0.205
359.00,0.199
360.00,0.194
361.00,0.189
362.00,0.184
363.00,0.179
364.00,0.175
365.00,0.171
366.00,0.167
367.00,0.164
368.00,0.160
369.00,0.157
370.00,0.154
371.00,0.151
372.00,0.148
373.00,0.146
374.00,0.143
375.00,0.141
376.00,0.139
377.00,0.136
378.00,0.134
379.00,0.132
380.00,0.130
381.00,0.128
382.00,0.127
383.00,0.125
384.00,0.124
385.00,0.122
386.00,0.121
387.00,0.119
388.00,0.118
389.00,0.116
390.00,0.115
391.00,0.114
392.00,0.113
393.00,0.111
394.00,0.110
395.00,0.109
396.00,0.108
397.00,0.107
398.00,0.106
399.00,0.105
400.00,0.104
401.00,0.103
402.00,0.102
403.00,0.101
404.00,0.101
405.00,0.100
406.00,0.099
407.00,0.098
408.00,0.097
409.00,0.096
410.00,0.095
411.00,0.095
412.00,0.094
413.00,0.093
414.00,0.092
415.00,0.092
416.00,0.091
417.00,0.090
418.00,0.090
419.00,0.089
420.00,0.089
421.00,0.088
422.00,0.087
423.00,0.087
424.00,0.086
425.00,0.085
426.00,0.085
427.00,0.084
428.00,0.083
429.00,0.083
430.00,0.082
431.00,0.082
432.00,0.081
433.00,0.081
434.00,0.080
435.00,0.079
436.00,0.079
437.00,0.078
438.00,0.078
439.00,0.077
440.00,0.077
441.00,0.076
442.00,0.076
443.00,0.075
444.00,0.075
445.00,0.075
446.00,0.074
447.00,0.074
448.00,0.073
449.00,0.073
450.00,0.072
451.00,0.072
452.00,0.072
453.00,0.071
454.00,0.071
455.00,0.070
456.00,0.070
457.00,0.070
458.00,0.069
459.00,0.069
460.00,0.068
461.00,0.068
462.00,0.068
463.00,0.067
464.00,0.067
465.00,0.067
466.00,0.066
467.00,0.066
468.00,0.066
469.00,0.065
470.00,0.065
471.00,0.065
472.00,0.064
473.00,0.064
474.00,0.064
475.00,0.063
476.00,0.063
477.00,0.063
478.00,0.062
479.00,0.062
480.00,0.062
481.00,0.061
482.00,0.061
483.00,0.061
484.00,0.061
485.00,0.060
486.00,0.060
487.00,0.060
488.00,0.060
489.00,0.059
490.00,0.059
491.00,0.059
492.00,0.059
493.00,0.058
494.00,0.058
495.00,0.058
496.00,0.058
497.00,0.057
498.00,0.057
499.00,0.057
500.00,0.057
501.00,0.056
502.00,0.056
503.00,0.056
504.00,0.056
505.00,0.056
506.00,0.055
507.00,0.055
508.00,0.055
509.00,0.055
510.00,0.054
511.00,0.054
512.00,0.054
513.00,0.054
514.00,0.054
515.00,0.053
516.00,0.053
517.00,0.053
518.00,0.053
519.00,0.053
520.00,0.053
521.00,0.052
522.00,0.052
523.00,0.052
524.00,0.052
525.00,0.052
526.00,0.052
527.00,0.051
528.00,0.051
529.00,0.051
530.00,0.051
531.00,0.051
532.00,0.051
533.00,0.050
534.00,0.050
535.00,0.050
536.00,0.050
537.00,0.050
538.00,0.050
539.00,0.050
540.00,0.050
541.00,0.050
542.00,0.049
543.00,0.049
544.00,0.049
545.00,0.049
546.00,0.049
547.00,0.049
548.00,0.049
549.00,0.049
550.00,0.049
551.00,0.048
552.00,0.048
553.00,0.048
554.00,0.048
555.00,0.048
556.00,0.048
557.00,0.048
558.00,0.048
559.00,0.047
560.00,0.047
561.00,0.047
562.00,0.047
563.00,0.047
564.00,0.047
565.00,0.047
566.00,0.047
567.00,0.047
568.00,0.047
569.00,0.046
570.00,0.046
571.00,0.046
572.00,0.046
573.00,0.046
574.00,0.046
575.00,0.046
576.00,0.046
577.00,0.046
578.00,0.046
579.00,0.046
580.00,0.046
581.00,0.046
582.00,0.045
583.00,0.045
584.00,0.045
585.00,0.045
586.00,0.045
587.00,0.045
588.00,0.045
589.00,0.045
590.00,0.045
591.00,0.045
592.00,0.045
593.00,0.045
594.00,0.045
595.00,0.045
596.00,0.045
597.00,0.045
598.00,0.045
599.00,0.045
600.00,0.045
601.00,0.045
602.00,0.045
603.00,0.045
604.00,0.045
605.00,0.045
606.00,0.045
607.00,0.045
608.00,0.045
609.00,0.045
610.00,0.045
611.00,0.045
612.00,0.045
613.00,0.045
614.00,0.045
615.00,0.044
616.00,0.044
617.00,0.044
618.00,0.044
619.00,0.044
620.00,0.044
621.00,0.044
622.00,0.044
623.00,0.044
624.00,0.044
625.00,0.044
626.00,0.044
627.00,0.044
628.00,0.044
629.00,0.044
630.00,0.044
631.00,0.044
632.00,0.044
633.00,0.044
634.00,0.044
635.00,0.044
636.00,0.044
637.00,0.044
638.00,0.044
639.00,0.044
640.00,0.044
641.00,0.044
642.00,0.043
643.00,0.043
644.00,0.043
645.00,0.043
646.00,0.043
647.00,0.043
648.00,0.043
649.00,0.043
650.00,0.043
651.00,0.043
652.00,0.043
653.00,0.043
654.00,0.043
655.00,0.043
656.00,0.043
657.00,0.043
658.00,0.043
659.00,0.043
660.00,0.043
661.00,0.043
662.00,0.043
663.00,0.043
664.00,0.043
665.00,0.043
666.00,0.043
667.00,0.042
668.00,0.042
669.00,0.042
670.00,0.043
671.00,0.042
672.00,0.042
673.00,0.042
674.00,0.042
675.00,0.042
676.00,0.042
677.00,0.042
678.00,0.042
679.00,0.042
680.00,0.042
681.00,0.042
682.00,0.042
683.00,0.042
684.00,0.042
685.00,0.042
686.00,0.042
687.00,0.042
688.00,0.042
689.00,0.042
690.00,0.042
691.00,0.042
692.00,0.042
693.00,0.042
694.00,0.042
695.00,0.043
696.00,0.043
697.00,0.043
698.00,0.043
699.00,0.043
700.00,0.043
701.00,0.043
702.00,0.043
703.00,0.043
704.00,0.043
705.00,0.043
706.00,0.043
707.00,0.043
708.00,0.043
709.00,0.043
710.00,0.043
711.00,0.044
712.00,0.044
713.00,0.044
714.00,0.044
715.00,0.044
716.00,0.044
717.00,0.044
718.00,0.045
719.00,0.045
720.00,0.045
721.00,0.045
722.00,0.046
723.00,0.046
724.00,0.046
725.00,0.046
726.00,0.046
727.00,0.047
728.00,0.047
729.00,0.048
730.00,0.048
731.00,0.049
732.00,0.049
733.00,0.050
734.00,0.050
735.00,0.050
736.00,0.051
737.00,0.051
738.00,0.051
739.00,0.051
740.00,0.051
741.00,0.051
742.00,0.052
743.00,0.051
744.00,0.051
745.00,0.052
746.00,0.051
747.00,0.051
748.00,0.051
749.00,0.051
750.00,0.051
751.00,0.051
752.00,0.051
753.00,0.051
754.00,0.051
755.00,0.051
756.00,0.051
757.00,0.051
758.00,0.051
759.00,0.051
760.00,0.052
761.00,0.051
762.00,0.051
763.00,0.051
764.00,0.051
765.00,0.051
766.00,0.051
767.00,0.051
768.00,0.051
769.00,0.051
770.00,0.051
771.00,0.050
772.00,0.050
773.00,0.050
774.00,0.050
775.00,0.050
776.00,0.050
777.00,0.050
778.00,0.050
779.00,0.050
780.00,0.050
781.00,0.050
782.00,0.049
783.00,0.049
784.00,0.049
785.00,0.049
786.00,0.049
787.00,0.049
788.00,0.049
789.00,0.049
790.00,0.049
791.00,0.049
792.00,0.048
793.00,0.048
794.00,0.048
795.00,0.048
796.00,0.048
797.00,0.048
798.00,0.048
799.00,0.048
800.00,0.048
801.00,0.048
802.00,0.048
803.00,0.048
804.00,0.048
805.00,0.048
806.00,0.047
807.00,0.047
808.00,0.048
809.00,0.047
810.00,0.047
811.00,0.048
812.00,0.048
813.00,0.048
814.00,0.048
815.00,0.048
816.00,0.048
817.00,0.048
818.00,0.048
819.00,0.048
820.00,0.048
821.00,0.048
822.00,0.049
823.00,0.049
824.00,0.049
825.00,0.050
826.00,0.050
827.00,0.050
828.00,0.051
829.00,0.052
830.00,0.052
831.00,0.053
832.00,0.053
833.00,0.053
834.00,0.054
835.00,0.054
836.00,0.054
837.00,0.054
838.00,0.055
839.00,0.055
840.00,0.055
841.00,0.055
842.00,0.055
843.00,0.055
844.00,0.055
845.00,0.055
846.00,0.055
847.00,0.056
848.00,0.056
849.00,0.056
850.00,0.056
851.00,0.056
852.00,0.056
853.00,0.056
854.00,0.056
855.00,0.056
856.00,0.057
857.00,0.057
858.00,0.057
859.00,0.057
860.00,0.057
861.00,0.057
862.00,0.057
863.00,0.057
864.00,0.058
865.00,0.058
866.00,0.058
867.00,0.058
868.00,0.058
869.00,0.058
870.00,0.058
871.00,0.058
872.00,0.059
873.00,0.059
874.00,0.059
875.00,0.059
876.00,0.059
877.00,0.060
878.00,0.060
879.00,0.060
880.00,0.060
881.00,0.060
882.00,0.061
883.00,0.061
884.00,0.061
885.00,0.061
886.00,0.062
887.00,0.062
888.00,0.062
889.00,0.062
890.00,0.063
891.00,0.063
892.00,0.063
893.00,0.063
894.00,0.064
895.00,0.064
896.00,0.064
897.00,0.064
898.00,0.065
899.00,0.065
900.00,0.065
