"SleemanOriginale_25x - RawData"
"Wavelength nm.","Abs."
190.00,3.080
191.00,2.902
192.00,3.196
193.00,3.191
194.00,3.513
195.00,3.500
196.00,3.476
197.00,3.645
198.00,3.482
199.00,3.325
200.00,3.580
201.00,3.510
202.00,3.668
203.00,3.715
204.00,3.600
205.00,3.453
206.00,3.399
207.00,3.230
208.00,3.213
209.00,3.082
210.00,2.967
211.00,2.869
212.00,2.778
213.00,2.646
214.00,2.532
215.00,2.416
216.00,2.296
217.00,2.195
218.00,2.091
219.00,1.988
220.00,1.889
221.00,1.799
222.00,1.713
223.00,1.629
224.00,1.545
225.00,1.466
226.00,1.387
227.00,1.307
228.00,1.230
229.00,1.157
230.00,1.089
231.00,1.027
232.00,0.971
233.00,0.922
234.00,0.880
235.00,0.843
236.00,0.812
237.00,0.785
238.00,0.763
239.00,0.745
240.00,0.730
241.00,0.718
242.00,0.710
243.00,0.704
244.00,0.699
245.00,0.697
246.00,0.695
247.00,0.695
248.00,0.696
249.00,0.698
250.00,0.700
251.00,0.703
252.00,0.707
253.00,0.711
254.00,0.714
255.00,0.718
256.00,0.721
257.00,0.724
258.00,0.726
259.00,0.728
260.00,0.729
261.00,0.731
262.00,0.733
263.00,0.737
264.00,0.740
265.00,0.743
266.00,0.745
267.00,0.747
268.00,0.749
269.00,0.749
270.00,0.748
271.00,0.746
272.00,0.744
273.00,0.740
274.00,0.735
275.00,0.728
276.00,0.720
277.00,0.710
278.00,0.698
279.00,0.684
280.00,0.670
281.00,0.655
282.00,0.639
283.00,0.621
284.00,0.603
285.00,0.583
286.00,0.564
287.00,0.546
288.00,0.527
289.00,0.509
290.00,0.490
291.00,0.472
292.00,0.455
293.00,0.440
294.00,0.427
295.00,0.415
296.00,0.405
297.00,0.396
298.00,0.388
299.00,0.379
300.00,0.372
301.00,0.365
302.00,0.360
303.00,0.354
304.00,0.349
305.00,0.345
306.00,0.340
307.00,0.336
308.00,0.332
309.00,0.328
310.00,0.325
311.00,0.321
312.00,0.318
313.00,0.315
314.00,0.312
315.00,0.309
316.00,0.306
317.00,0.302
318.00,0.299
319.00,0.295
320.00,0.292
321.00,0.288
322.00,0.284
323.00,0.280
324.00,0.276
325.00,0.271
326.00,0.266
327.00,0.262
328.00,0.256
329.00,0.251
330.00,0.246
331.00,0.241
332.00,0.236
333.00,0.230
334.00,0.224
335.00,0.219
336.00,0.213
337.00,0.208
338.00,0.202
339.00,0.197
340.00,0.192
341.00,0.186
342.00,0.181
343.00,0.175
344.00,0.171
345.00,0.166
346.00,0.162
347.00,0.157
348.00,0.153
349.00,0.149
350.00,0.144
351.00,0.141
352.00,0.137
353.00,0.133
354.00,0.130
355.00,0.127
356.00,0.124
357.00,0.121
358.00,0.118
359.00,0.116
360.00,0.113
361.00,0.111
362.00,0.108
363.00,0.106
364.00,0.104
365.00,0.102
366.00,0.101
367.00,0.099
368.00,0.097
369.00,0.096
370.00,0.094
371.00,0.092
372.00,0.091
373.00,0.090
374.00,0.089
375.00,0.087
376.00,0.086
377.00,0.085
378.00,0.084
379.00,0.083
380.00,0.082
381.00,0.081
382.00,0.080
383.00,0.079
384.00,0.078
385.00,0.078
386.00,0.077
387.00,0.076
388.00,0.075
389.00,0.075
390.00,0.074
391.00,0.074
392.00,0.073
393.00,0.072
394.00,0.072
395.00,0.071
396.00,0.070
397.00,0.070
398.00,0.070
399.00,0.069
400.00,0.069
401.00,0.068
402.00,0.068
403.00,0.067
404.00,0.067
405.00,0.066
406.00,0.066
407.00,0.066
408.00,0.065
409.00,0.065
410.00,0.064
411.00,0.064
412.00,0.064
413.00,0.063
414.00,0.063
415.00,0.063
416.00,0.062
417.00,0.062
418.00,0.062
419.00,0.062
420.00,0.061
421.00,0.061
422.00,0.061
423.00,0.060
424.00,0.060
425.00,0.060
426.00,0.059
427.00,0.059
428.00,0.059
429.00,0.059
430.00,0.058
431.00,0.058
432.00,0.058
433.00,0.058
434.00,0.057
435.00,0.057
436.00,0.057
437.00,0.057
438.00,0.056
439.00,0.056
440.00,0.056
441.00,0.056
442.00,0.055
443.00,0.055
444.00,0.055
445.00,0.055
446.00,0.055
447.00,0.055
448.00,0.054
449.00,0.054
450.00,0.054
451.00,0.054
452.00,0.054
453.00,0.053
454.00,0.053
455.00,0.053
456.00,0.053
457.00,0.053
458.00,0.053
459.00,0.052
460.00,0.052
461.00,0.052
462.00,0.052
463.00,0.052
464.00,0.052
465.00,0.051
466.00,0.051
467.00,0.051
468.00,0.051
469.00,0.051
470.00,0.051
471.00,0.050
472.00,0.050
473.00,0.050
474.00,0.050
475.00,0.050
476.00,0.050
477.00,0.050
478.00,0.049
479.00,0.049
480.00,0.049
481.00,0.049
482.00,0.049
483.00,0.049
484.00,0.049
485.00,0.048
486.00,0.048
487.00,0.048
488.00,0.048
489.00,0.048
490.00,0.048
491.00,0.048
492.00,0.047
493.00,0.047
494.00,0.047
495.00,0.047
496.00,0.047
497.00,0.047
498.00,0.047
499.00,0.047
500.00,0.047
501.00,0.046
502.00,0.046
503.00,0.046
504.00,0.046
505.00,0.046
506.00,0.046
507.00,0.046
508.00,0.046
509.00,0.046
510.00,0.045
511.00,0.045
512.00,0.045
513.00,0.045
514.00,0.045
515.00,0.045
516.00,0.045
517.00,0.045
518.00,0.045
519.00,0.045
520.00,0.045
521.00,0.044
522.00,0.044
523.00,0.044
524.00,0.044
525.00,0.044
526.00,0.044
527.00,0.044
528.00,0.044
529.00,0.044
530.00,0.044
531.00,0.044
532.00,0.043
533.00,0.043
534.00,0.043
535.00,0.043
536.00,0.044
537.00,0.043
538.00,0.043
539.00,0.043
540.00,0.043
541.00,0.043
542.00,0.043
543.00,0.043
544.00,0.043
545.00,0.043
546.00,0.042
547.00,0.042
548.00,0.042
549.00,0.042
550.00,0.042
551.00,0.042
552.00,0.042
553.00,0.042
554.00,0.042
555.00,0.042
556.00,0.042
557.00,0.042
558.00,0.042
559.00,0.042
560.00,0.042
561.00,0.042
562.00,0.042
563.00,0.041
564.00,0.041
565.00,0.041
566.00,0.041
567.00,0.041
568.00,0.041
569.00,0.041
570.00,0.041
571.00,0.041
572.00,0.041
573.00,0.041
574.00,0.041
575.00,0.041
576.00,0.041
577.00,0.041
578.00,0.041
579.00,0.041
580.00,0.041
581.00,0.041
582.00,0.041
583.00,0.041
584.00,0.041
585.00,0.041
586.00,0.041
587.00,0.041
588.00,0.041
589.00,0.040
590.00,0.040
591.00,0.040
592.00,0.040
593.00,0.040
594.00,0.040
595.00,0.041
596.00,0.041
597.00,0.040
598.00,0.040
599.00,0.040
600.00,0.040
601.00,0.040
602.00,0.040
603.00,0.041
604.00,0.041
605.00,0.041
606.00,0.040
607.00,0.040
608.00,0.040
609.00,0.040
610.00,0.040
611.00,0.040
612.00,0.040
613.00,0.040
614.00,0.040
615.00,0.040
616.00,0.040
617.00,0.040
618.00,0.040
619.00,0.040
620.00,0.040
621.00,0.040
622.00,0.040
623.00,0.040
624.00,0.040
625.00,0.040
626.00,0.040
627.00,0.040
628.00,0.040
629.00,0.040
630.00,0.040
631.00,0.040
632.00,0.040
633.00,0.040
634.00,0.040
635.00,0.040
636.00,0.040
637.00,0.040
638.00,0.040
639.00,0.040
640.00,0.040
641.00,0.040
642.00,0.040
643.00,0.040
644.00,0.040
645.00,0.040
646.00,0.040
647.00,0.040
648.00,0.040
649.00,0.039
650.00,0.039
651.00,0.039
652.00,0.039
653.00,0.040
654.00,0.040
655.00,0.040
656.00,0.040
657.00,0.040
658.00,0.040
659.00,0.040
660.00,0.040
661.00,0.040
662.00,0.040
663.00,0.040
664.00,0.040
665.00,0.039
666.00,0.039
667.00,0.039
668.00,0.039
669.00,0.039
670.00,0.039
671.00,0.039
672.00,0.039
673.00,0.039
674.00,0.039
675.00,0.039
676.00,0.039
677.00,0.039
678.00,0.039
679.00,0.039
680.00,0.039
681.00,0.039
682.00,0.039
683.00,0.039
684.00,0.039
685.00,0.039
686.00,0.039
687.00,0.039
688.00,0.039
689.00,0.039
690.00,0.039
691.00,0.039
692.00,0.039
693.00,0.040
694.00,0.040
695.00,0.040
696.00,0.040
697.00,0.040
698.00,0.040
699.00,0.040
700.00,0.040
701.00,0.040
702.00,0.040
703.00,0.040
704.00,0.040
705.00,0.040
706.00,0.040
707.00,0.040
708.00,0.040
709.00,0.040
710.00,0.040
711.00,0.041
712.00,0.041
713.00,0.041
714.00,0.041
715.00,0.041
716.00,0.041
717.00,0.041
718.00,0.042
719.00,0.042
720.00,0.042
721.00,0.042
722.00,0.042
723.00,0.043
724.00,0.043
725.00,0.043
726.00,0.043
727.00,0.044
728.00,0.044
729.00,0.045
730.00,0.045
731.00,0.046
732.00,0.046
733.00,0.046
734.00,0.047
735.00,0.047
736.00,0.048
737.00,0.048
738.00,0.048
739.00,0.048
740.00,0.048
741.00,0.048
742.00,0.048
743.00,0.048
744.00,0.048
745.00,0.048
746.00,0.048
747.00,0.048
748.00,0.048
749.00,0.048
750.00,0.048
751.00,0.048
752.00,0.048
753.00,0.048
754.00,0.048
755.00,0.048
756.00,0.048
757.00,0.048
758.00,0.048
759.00,0.048
760.00,0.049
761.00,0.048
762.00,0.048
763.00,0.048
764.00,0.048
765.00,0.048
766.00,0.048
767.00,0.048
768.00,0.048
769.00,0.048
770.00,0.048
771.00,0.048
772.00,0.048
773.00,0.048
774.00,0.048
775.00,0.048
776.00,0.047
777.00,0.047
778.00,0.047
779.00,0.047
780.00,0.047
781.00,0.047
782.00,0.047
783.00,0.047
784.00,0.047
785.00,0.047
786.00,0.047
787.00,0.046
788.00,0.046
789.00,0.046
790.00,0.046
791.00,0.046
792.00,0.046
793.00,0.046
794.00,0.046
795.00,0.046
796.00,0.045
797.00,0.045
798.00,0.045
799.00,0.045
800.00,0.045
801.00,0.045
802.00,0.045
803.00,0.045
804.00,0.045
805.00,0.045
806.00,0.045
807.00,0.045
808.00,0.045
809.00,0.045
810.00,0.045
811.00,0.045
812.00,0.045
813.00,0.045
814.00,0.045
815.00,0.045
816.00,0.045
817.00,0.045
818.00,0.045
819.00,0.045
820.00,0.046
821.00,0.046
822.00,0.046
823.00,0.046
824.00,0.046
825.00,0.047
826.00,0.047
827.00,0.048
828.00,0.048
829.00,0.049
830.00,0.049
831.00,0.050
832.00,0.050
833.00,0.051
834.00,0.051
835.00,0.051
836.00,0.052
837.00,0.052
838.00,0.052
839.00,0.052
840.00,0.052
841.00,0.052
842.00,0.052
843.00,0.052
844.00,0.053
845.00,0.053
846.00,0.053
847.00,0.053
848.00,0.053
849.00,0.053
850.00,0.053
851.00,0.053
852.00,0.053
853.00,0.054
854.00,0.054
855.00,0.054
856.00,0.054
857.00,0.054
858.00,0.054
859.00,0.054
860.00,0.054
861.00,0.054
862.00,0.054
863.00,0.055
864.00,0.055
865.00,0.055
866.00,0.055
867.00,0.055
868.00,0.055
869.00,0.055
870.00,0.055
871.00,0.056
872.00,0.056
873.00,0.056
874.00,0.056
875.00,0.056
876.00,0.057
877.00,0.057
878.00,0.057
879.00,0.057
880.00,0.057
881.00,0.058
882.00,0.058
883.00,0.058
884.00,0.058
885.00,0.059
886.00,0.059
887.00,0.059
888.00,0.059
889.00,0.059
890.00,0.060
891.00,0.060
892.00,0.060
893.00,0.060
894.00,0.061
895.00,0.061
896.00,0.061
897.00,0.061
898.00,0.062
899.00,0.062
900.00,0.062
