"SimpleMaltIPA50x - RawData"
"Wavelength nm.","Abs."
190.00,3.763
191.00,3.705
192.00,3.752
193.00,3.635
194.00,3.627
195.00,3.818
196.00,3.837
197.00,3.903
198.00,3.824
199.00,3.897
200.00,3.771
201.00,3.888
202.00,3.901
203.00,3.880
204.00,3.745
205.00,3.684
206.00,3.569
207.00,3.756
208.00,3.415
209.00,3.331
210.00,3.198
211.00,3.043
212.00,2.907
213.00,2.808
214.00,2.659
215.00,2.552
216.00,2.439
217.00,2.329
218.00,2.222
219.00,2.122
220.00,2.018
221.00,1.923
222.00,1.834
223.00,1.744
224.00,1.654
225.00,1.568
226.00,1.484
227.00,1.399
228.00,1.318
229.00,1.243
230.00,1.174
231.00,1.111
232.00,1.054
233.00,1.003
234.00,0.958
235.00,0.920
236.00,0.887
237.00,0.859
238.00,0.836
239.00,0.816
240.00,0.801
241.00,0.789
242.00,0.781
243.00,0.775
244.00,0.772
245.00,0.772
246.00,0.772
247.00,0.774
248.00,0.777
249.00,0.781
250.00,0.786
251.00,0.792
252.00,0.797
253.00,0.804
254.00,0.809
255.00,0.815
256.00,0.821
257.00,0.825
258.00,0.828
259.00,0.830
260.00,0.831
261.00,0.831
262.00,0.833
263.00,0.833
264.00,0.834
265.00,0.834
266.00,0.833
267.00,0.832
268.00,0.829
269.00,0.824
270.00,0.819
271.00,0.812
272.00,0.805
273.00,0.796
274.00,0.786
275.00,0.776
276.00,0.764
277.00,0.752
278.00,0.737
279.00,0.723
280.00,0.708
281.00,0.693
282.00,0.676
283.00,0.658
284.00,0.639
285.00,0.620
286.00,0.601
287.00,0.583
288.00,0.564
289.00,0.544
290.00,0.523
291.00,0.503
292.00,0.485
293.00,0.469
294.00,0.455
295.00,0.442
296.00,0.432
297.00,0.422
298.00,0.413
299.00,0.404
300.00,0.397
301.00,0.390
302.00,0.384
303.00,0.378
304.00,0.373
305.00,0.368
306.00,0.363
307.00,0.358
308.00,0.354
309.00,0.350
310.00,0.346
311.00,0.343
312.00,0.340
313.00,0.336
314.00,0.333
315.00,0.330
316.00,0.327
317.00,0.323
318.00,0.320
319.00,0.316
320.00,0.313
321.00,0.309
322.00,0.305
323.00,0.301
324.00,0.297
325.00,0.292
326.00,0.288
327.00,0.284
328.00,0.279
329.00,0.274
330.00,0.269
331.00,0.264
332.00,0.259
333.00,0.253
334.00,0.248
335.00,0.243
336.00,0.238
337.00,0.233
338.00,0.227
339.00,0.223
340.00,0.218
341.00,0.212
342.00,0.206
343.00,0.201
344.00,0.197
345.00,0.192
346.00,0.188
347.00,0.183
348.00,0.179
349.00,0.174
350.00,0.170
351.00,0.166
352.00,0.162
353.00,0.159
354.00,0.155
355.00,0.152
356.00,0.148
357.00,0.145
358.00,0.142
359.00,0.139
360.00,0.136
361.00,0.133
362.00,0.130
363.00,0.128
364.00,0.126
365.00,0.123
366.00,0.121
367.00,0.119
368.00,0.117
369.00,0.115
370.00,0.113
371.00,0.111
372.00,0.109
373.00,0.107
374.00,0.105
375.00,0.104
376.00,0.102
377.00,0.100
378.00,0.098
379.00,0.097
380.00,0.095
381.00,0.094
382.00,0.092
383.00,0.091
384.00,0.090
385.00,0.088
386.00,0.087
387.00,0.086
388.00,0.085
389.00,0.084
390.00,0.083
391.00,0.081
392.00,0.080
393.00,0.079
394.00,0.078
395.00,0.077
396.00,0.076
397.00,0.076
398.00,0.075
399.00,0.074
400.00,0.073
401.00,0.072
402.00,0.072
403.00,0.071
404.00,0.071
405.00,0.070
406.00,0.069
407.00,0.069
408.00,0.068
409.00,0.067
410.00,0.067
411.00,0.066
412.00,0.066
413.00,0.065
414.00,0.065
415.00,0.064
416.00,0.064
417.00,0.064
418.00,0.063
419.00,0.063
420.00,0.063
421.00,0.062
422.00,0.062
423.00,0.062
424.00,0.061
425.00,0.061
426.00,0.061
427.00,0.060
428.00,0.060
429.00,0.060
430.00,0.059
431.00,0.059
432.00,0.059
433.00,0.059
434.00,0.058
435.00,0.058
436.00,0.058
437.00,0.058
438.00,0.058
439.00,0.057
440.00,0.057
441.00,0.057
442.00,0.057
443.00,0.056
444.00,0.056
445.00,0.056
446.00,0.056
447.00,0.056
448.00,0.056
449.00,0.055
450.00,0.055
451.00,0.055
452.00,0.055
453.00,0.055
454.00,0.055
455.00,0.054
456.00,0.054
457.00,0.054
458.00,0.054
459.00,0.054
460.00,0.054
461.00,0.053
462.00,0.053
463.00,0.053
464.00,0.053
465.00,0.053
466.00,0.053
467.00,0.053
468.00,0.052
469.00,0.052
470.00,0.052
471.00,0.052
472.00,0.052
473.00,0.052
474.00,0.052
475.00,0.051
476.00,0.051
477.00,0.051
478.00,0.051
479.00,0.051
480.00,0.051
481.00,0.051
482.00,0.051
483.00,0.050
484.00,0.050
485.00,0.050
486.00,0.050
487.00,0.050
488.00,0.050
489.00,0.050
490.00,0.050
491.00,0.050
492.00,0.050
493.00,0.049
494.00,0.049
495.00,0.049
496.00,0.049
497.00,0.049
498.00,0.049
499.00,0.049
500.00,0.049
501.00,0.049
502.00,0.049
503.00,0.049
504.00,0.048
505.00,0.048
506.00,0.048
507.00,0.048
508.00,0.048
509.00,0.048
510.00,0.048
511.00,0.048
512.00,0.048
513.00,0.048
514.00,0.048
515.00,0.048
516.00,0.048
517.00,0.048
518.00,0.048
519.00,0.047
520.00,0.047
521.00,0.047
522.00,0.047
523.00,0.047
524.00,0.047
525.00,0.047
526.00,0.047
527.00,0.047
528.00,0.047
529.00,0.047
530.00,0.047
531.00,0.047
532.00,0.047
533.00,0.046
534.00,0.046
535.00,0.046
536.00,0.047
537.00,0.046
538.00,0.046
539.00,0.046
540.00,0.046
541.00,0.046
542.00,0.046
543.00,0.046
544.00,0.046
545.00,0.046
546.00,0.046
547.00,0.046
548.00,0.046
549.00,0.046
550.00,0.046
551.00,0.046
552.00,0.046
553.00,0.045
554.00,0.046
555.00,0.045
556.00,0.045
557.00,0.045
558.00,0.045
559.00,0.045
560.00,0.045
561.00,0.045
562.00,0.045
563.00,0.045
564.00,0.045
565.00,0.045
566.00,0.045
567.00,0.045
568.00,0.045
569.00,0.045
570.00,0.045
571.00,0.045
572.00,0.045
573.00,0.045
574.00,0.045
575.00,0.045
576.00,0.045
577.00,0.045
578.00,0.045
579.00,0.045
580.00,0.045
581.00,0.045
582.00,0.045
583.00,0.045
584.00,0.044
585.00,0.044
586.00,0.044
587.00,0.044
588.00,0.044
589.00,0.044
590.00,0.044
591.00,0.044
592.00,0.044
593.00,0.044
594.00,0.044
595.00,0.044
596.00,0.044
597.00,0.044
598.00,0.044
599.00,0.044
600.00,0.044
601.00,0.045
602.00,0.045
603.00,0.044
604.00,0.044
605.00,0.044
606.00,0.044
607.00,0.044
608.00,0.044
609.00,0.044
610.00,0.044
611.00,0.044
612.00,0.044
613.00,0.044
614.00,0.044
615.00,0.044
616.00,0.044
617.00,0.044
618.00,0.044
619.00,0.044
620.00,0.044
621.00,0.044
622.00,0.044
623.00,0.044
624.00,0.044
625.00,0.044
626.00,0.044
627.00,0.044
628.00,0.044
629.00,0.044
630.00,0.044
631.00,0.044
632.00,0.044
633.00,0.044
634.00,0.044
635.00,0.044
636.00,0.044
637.00,0.044
638.00,0.044
639.00,0.044
640.00,0.044
641.00,0.044
642.00,0.044
643.00,0.044
644.00,0.044
645.00,0.044
646.00,0.044
647.00,0.044
648.00,0.044
649.00,0.044
650.00,0.044
651.00,0.044
652.00,0.044
653.00,0.044
654.00,0.044
655.00,0.044
656.00,0.044
657.00,0.044
658.00,0.044
659.00,0.044
660.00,0.044
661.00,0.044
662.00,0.044
663.00,0.044
664.00,0.044
665.00,0.044
666.00,0.044
667.00,0.044
668.00,0.044
669.00,0.044
670.00,0.044
671.00,0.044
672.00,0.044
673.00,0.044
674.00,0.044
675.00,0.044
676.00,0.044
677.00,0.044
678.00,0.044
679.00,0.044
680.00,0.044
681.00,0.044
682.00,0.044
683.00,0.044
684.00,0.044
685.00,0.044
686.00,0.044
687.00,0.044
688.00,0.044
689.00,0.044
690.00,0.044
691.00,0.044
692.00,0.044
693.00,0.044
694.00,0.044
695.00,0.044
696.00,0.044
697.00,0.044
698.00,0.044
699.00,0.044
700.00,0.044
701.00,0.044
702.00,0.044
703.00,0.044
704.00,0.044
705.00,0.044
706.00,0.044
707.00,0.044
708.00,0.044
709.00,0.045
710.00,0.045
711.00,0.045
712.00,0.045
713.00,0.045
714.00,0.045
715.00,0.045
716.00,0.046
717.00,0.046
718.00,0.046
719.00,0.046
720.00,0.046
721.00,0.047
722.00,0.047
723.00,0.047
724.00,0.047
725.00,0.048
726.00,0.048
727.00,0.048
728.00,0.049
729.00,0.049
730.00,0.050
731.00,0.050
732.00,0.051
733.00,0.051
734.00,0.051
735.00,0.052
736.00,0.052
737.00,0.052
738.00,0.052
739.00,0.053
740.00,0.053
741.00,0.053
742.00,0.053
743.00,0.053
744.00,0.053
745.00,0.053
746.00,0.053
747.00,0.053
748.00,0.053
749.00,0.053
750.00,0.053
751.00,0.053
752.00,0.053
753.00,0.053
754.00,0.053
755.00,0.053
756.00,0.053
757.00,0.053
758.00,0.053
759.00,0.053
760.00,0.053
761.00,0.053
762.00,0.053
763.00,0.053
764.00,0.053
765.00,0.053
766.00,0.053
767.00,0.053
768.00,0.053
769.00,0.053
770.00,0.052
771.00,0.052
772.00,0.052
773.00,0.052
774.00,0.052
775.00,0.052
776.00,0.052
777.00,0.052
778.00,0.052
779.00,0.052
780.00,0.052
781.00,0.052
782.00,0.052
783.00,0.051
784.00,0.051
785.00,0.051
786.00,0.051
787.00,0.051
788.00,0.051
789.00,0.051
790.00,0.051
791.00,0.051
792.00,0.050
793.00,0.050
794.00,0.050
795.00,0.050
796.00,0.050
797.00,0.050
798.00,0.050
799.00,0.050
800.00,0.050
801.00,0.050
802.00,0.050
803.00,0.050
804.00,0.049
805.00,0.049
806.00,0.049
807.00,0.049
808.00,0.049
809.00,0.049
810.00,0.049
811.00,0.049
812.00,0.050
813.00,0.049
814.00,0.049
815.00,0.050
816.00,0.050
817.00,0.050
818.00,0.050
819.00,0.050
820.00,0.050
821.00,0.050
822.00,0.051
823.00,0.051
824.00,0.051
825.00,0.051
826.00,0.052
827.00,0.052
828.00,0.053
829.00,0.054
830.00,0.054
831.00,0.055
832.00,0.055
833.00,0.056
834.00,0.056
835.00,0.056
836.00,0.056
837.00,0.056
838.00,0.057
839.00,0.057
840.00,0.057
841.00,0.057
842.00,0.057
843.00,0.057
844.00,0.057
845.00,0.058
846.00,0.058
847.00,0.058
848.00,0.058
849.00,0.058
850.00,0.058
851.00,0.058
852.00,0.058
853.00,0.059
854.00,0.059
855.00,0.059
856.00,0.059
857.00,0.059
858.00,0.059
859.00,0.059
860.00,0.059
861.00,0.060
862.00,0.060
863.00,0.060
864.00,0.060
865.00,0.060
866.00,0.060
867.00,0.060
868.00,0.060
869.00,0.061
870.00,0.061
871.00,0.061
872.00,0.061
873.00,0.061
874.00,0.061
875.00,0.062
876.00,0.062
877.00,0.062
878.00,0.062
879.00,0.063
880.00,0.063
881.00,0.063
882.00,0.063
883.00,0.064
884.00,0.064
885.00,0.064
886.00,0.064
887.00,0.065
888.00,0.065
889.00,0.065
890.00,0.065
891.00,0.066
892.00,0.066
893.00,0.066
894.00,0.066
895.00,0.067
896.00,0.067
897.00,0.067
898.00,0.067
899.00,0.067
900.00,0.068
