"SMMosaic50x - RawData"
"Wavelength nm.","Abs."
190.00,3.660
191.00,3.580
192.00,3.713
193.00,3.649
194.00,3.573
195.00,3.624
196.00,3.808
197.00,3.992
198.00,3.731
199.00,3.731
200.00,3.676
201.00,3.614
202.00,3.787
203.00,3.903
204.00,3.825
205.00,3.830
206.00,3.673
207.00,3.466
208.00,3.439
209.00,3.284
210.00,3.129
211.00,2.996
212.00,2.877
213.00,2.750
214.00,2.633
215.00,2.517
216.00,2.412
217.00,2.298
218.00,2.199
219.00,2.094
220.00,1.996
221.00,1.902
222.00,1.815
223.00,1.728
224.00,1.641
225.00,1.559
226.00,1.478
227.00,1.394
228.00,1.313
229.00,1.241
230.00,1.172
231.00,1.112
232.00,1.057
233.00,1.007
234.00,0.964
235.00,0.926
236.00,0.893
237.00,0.866
238.00,0.843
239.00,0.824
240.00,0.809
241.00,0.798
242.00,0.790
243.00,0.785
244.00,0.782
245.00,0.781
246.00,0.782
247.00,0.784
248.00,0.787
249.00,0.791
250.00,0.795
251.00,0.800
252.00,0.806
253.00,0.811
254.00,0.817
255.00,0.822
256.00,0.828
257.00,0.831
258.00,0.834
259.00,0.836
260.00,0.836
261.00,0.837
262.00,0.838
263.00,0.838
264.00,0.839
265.00,0.838
266.00,0.837
267.00,0.835
268.00,0.832
269.00,0.828
270.00,0.822
271.00,0.815
272.00,0.807
273.00,0.798
274.00,0.788
275.00,0.778
276.00,0.766
277.00,0.754
278.00,0.740
279.00,0.725
280.00,0.709
281.00,0.694
282.00,0.677
283.00,0.659
284.00,0.641
285.00,0.622
286.00,0.603
287.00,0.585
288.00,0.566
289.00,0.547
290.00,0.526
291.00,0.506
292.00,0.488
293.00,0.472
294.00,0.458
295.00,0.446
296.00,0.435
297.00,0.425
298.00,0.415
299.00,0.407
300.00,0.400
301.00,0.393
302.00,0.386
303.00,0.381
304.00,0.375
305.00,0.370
306.00,0.365
307.00,0.361
308.00,0.357
309.00,0.353
310.00,0.349
311.00,0.346
312.00,0.342
313.00,0.339
314.00,0.335
315.00,0.332
316.00,0.329
317.00,0.326
318.00,0.322
319.00,0.319
320.00,0.315
321.00,0.312
322.00,0.308
323.00,0.304
324.00,0.299
325.00,0.295
326.00,0.290
327.00,0.286
328.00,0.281
329.00,0.276
330.00,0.272
331.00,0.266
332.00,0.261
333.00,0.256
334.00,0.251
335.00,0.246
336.00,0.241
337.00,0.236
338.00,0.231
339.00,0.226
340.00,0.221
341.00,0.215
342.00,0.210
343.00,0.205
344.00,0.200
345.00,0.196
346.00,0.191
347.00,0.187
348.00,0.182
349.00,0.178
350.00,0.173
351.00,0.169
352.00,0.166
353.00,0.162
354.00,0.158
355.00,0.155
356.00,0.151
357.00,0.148
358.00,0.145
359.00,0.142
360.00,0.139
361.00,0.136
362.00,0.133
363.00,0.131
364.00,0.129
365.00,0.126
366.00,0.124
367.00,0.122
368.00,0.120
369.00,0.117
370.00,0.115
371.00,0.113
372.00,0.111
373.00,0.110
374.00,0.108
375.00,0.106
376.00,0.104
377.00,0.102
378.00,0.101
379.00,0.099
380.00,0.098
381.00,0.096
382.00,0.095
383.00,0.093
384.00,0.092
385.00,0.091
386.00,0.090
387.00,0.088
388.00,0.087
389.00,0.086
390.00,0.085
391.00,0.084
392.00,0.083
393.00,0.082
394.00,0.081
395.00,0.080
396.00,0.079
397.00,0.078
398.00,0.078
399.00,0.077
400.00,0.076
401.00,0.075
402.00,0.075
403.00,0.074
404.00,0.073
405.00,0.073
406.00,0.072
407.00,0.071
408.00,0.071
409.00,0.070
410.00,0.070
411.00,0.069
412.00,0.069
413.00,0.068
414.00,0.068
415.00,0.067
416.00,0.067
417.00,0.067
418.00,0.066
419.00,0.066
420.00,0.066
421.00,0.065
422.00,0.065
423.00,0.064
424.00,0.064
425.00,0.064
426.00,0.063
427.00,0.063
428.00,0.063
429.00,0.062
430.00,0.062
431.00,0.062
432.00,0.062
433.00,0.061
434.00,0.061
435.00,0.061
436.00,0.061
437.00,0.060
438.00,0.060
439.00,0.060
440.00,0.060
441.00,0.059
442.00,0.059
443.00,0.059
444.00,0.059
445.00,0.059
446.00,0.058
447.00,0.058
448.00,0.058
449.00,0.058
450.00,0.057
451.00,0.057
452.00,0.057
453.00,0.057
454.00,0.057
455.00,0.057
456.00,0.056
457.00,0.056
458.00,0.056
459.00,0.056
460.00,0.056
461.00,0.056
462.00,0.055
463.00,0.055
464.00,0.055
465.00,0.055
466.00,0.055
467.00,0.055
468.00,0.054
469.00,0.054
470.00,0.054
471.00,0.054
472.00,0.054
473.00,0.054
474.00,0.054
475.00,0.053
476.00,0.053
477.00,0.053
478.00,0.053
479.00,0.053
480.00,0.053
481.00,0.053
482.00,0.052
483.00,0.052
484.00,0.052
485.00,0.052
486.00,0.052
487.00,0.052
488.00,0.052
489.00,0.051
490.00,0.051
491.00,0.051
492.00,0.051
493.00,0.051
494.00,0.051
495.00,0.051
496.00,0.051
497.00,0.051
498.00,0.051
499.00,0.050
500.00,0.050
501.00,0.050
502.00,0.050
503.00,0.050
504.00,0.050
505.00,0.050
506.00,0.050
507.00,0.050
508.00,0.050
509.00,0.049
510.00,0.049
511.00,0.049
512.00,0.049
513.00,0.049
514.00,0.049
515.00,0.049
516.00,0.049
517.00,0.049
518.00,0.049
519.00,0.049
520.00,0.048
521.00,0.048
522.00,0.048
523.00,0.048
524.00,0.048
525.00,0.048
526.00,0.048
527.00,0.048
528.00,0.048
529.00,0.048
530.00,0.048
531.00,0.047
532.00,0.047
533.00,0.047
534.00,0.047
535.00,0.047
536.00,0.047
537.00,0.047
538.00,0.047
539.00,0.047
540.00,0.047
541.00,0.047
542.00,0.047
543.00,0.047
544.00,0.047
545.00,0.046
546.00,0.046
547.00,0.046
548.00,0.046
549.00,0.046
550.00,0.046
551.00,0.046
552.00,0.046
553.00,0.046
554.00,0.046
555.00,0.046
556.00,0.046
557.00,0.046
558.00,0.046
559.00,0.046
560.00,0.045
561.00,0.045
562.00,0.045
563.00,0.045
564.00,0.045
565.00,0.045
566.00,0.045
567.00,0.045
568.00,0.045
569.00,0.045
570.00,0.045
571.00,0.045
572.00,0.045
573.00,0.045
574.00,0.045
575.00,0.045
576.00,0.045
577.00,0.045
578.00,0.045
579.00,0.045
580.00,0.045
581.00,0.044
582.00,0.044
583.00,0.044
584.00,0.044
585.00,0.044
586.00,0.044
587.00,0.044
588.00,0.044
589.00,0.044
590.00,0.044
591.00,0.044
592.00,0.044
593.00,0.044
594.00,0.044
595.00,0.044
596.00,0.044
597.00,0.044
598.00,0.044
599.00,0.044
600.00,0.044
601.00,0.044
602.00,0.044
603.00,0.044
604.00,0.044
605.00,0.044
606.00,0.044
607.00,0.044
608.00,0.044
609.00,0.044
610.00,0.044
611.00,0.044
612.00,0.044
613.00,0.044
614.00,0.044
615.00,0.044
616.00,0.044
617.00,0.044
618.00,0.044
619.00,0.044
620.00,0.043
621.00,0.043
622.00,0.043
623.00,0.043
624.00,0.043
625.00,0.043
626.00,0.043
627.00,0.043
628.00,0.043
629.00,0.043
630.00,0.043
631.00,0.043
632.00,0.043
633.00,0.043
634.00,0.043
635.00,0.043
636.00,0.043
637.00,0.043
638.00,0.043
639.00,0.043
640.00,0.043
641.00,0.043
642.00,0.043
643.00,0.043
644.00,0.043
645.00,0.043
646.00,0.043
647.00,0.043
648.00,0.043
649.00,0.043
650.00,0.043
651.00,0.043
652.00,0.043
653.00,0.043
654.00,0.043
655.00,0.043
656.00,0.043
657.00,0.043
658.00,0.042
659.00,0.042
660.00,0.042
661.00,0.042
662.00,0.043
663.00,0.043
664.00,0.042
665.00,0.042
666.00,0.042
667.00,0.042
668.00,0.042
669.00,0.042
670.00,0.042
671.00,0.042
672.00,0.042
673.00,0.042
674.00,0.042
675.00,0.042
676.00,0.042
677.00,0.042
678.00,0.042
679.00,0.042
680.00,0.042
681.00,0.042
682.00,0.042
683.00,0.042
684.00,0.042
685.00,0.042
686.00,0.042
687.00,0.042
688.00,0.042
689.00,0.042
690.00,0.042
691.00,0.042
692.00,0.042
693.00,0.042
694.00,0.042
695.00,0.042
696.00,0.042
697.00,0.042
698.00,0.042
699.00,0.042
700.00,0.042
701.00,0.042
702.00,0.042
703.00,0.042
704.00,0.043
705.00,0.043
706.00,0.043
707.00,0.043
708.00,0.043
709.00,0.043
710.00,0.043
711.00,0.043
712.00,0.043
713.00,0.043
714.00,0.043
715.00,0.044
716.00,0.044
717.00,0.044
718.00,0.044
719.00,0.044
720.00,0.044
721.00,0.045
722.00,0.045
723.00,0.045
724.00,0.045
725.00,0.046
726.00,0.046
727.00,0.046
728.00,0.047
729.00,0.047
730.00,0.047
731.00,0.048
732.00,0.048
733.00,0.049
734.00,0.049
735.00,0.050
736.00,0.050
737.00,0.050
738.00,0.050
739.00,0.051
740.00,0.051
741.00,0.051
742.00,0.051
743.00,0.051
744.00,0.051
745.00,0.051
746.00,0.051
747.00,0.051
748.00,0.051
749.00,0.051
750.00,0.051
751.00,0.051
752.00,0.051
753.00,0.051
754.00,0.051
755.00,0.051
756.00,0.051
757.00,0.051
758.00,0.051
759.00,0.051
760.00,0.051
761.00,0.051
762.00,0.051
763.00,0.050
764.00,0.050
765.00,0.050
766.00,0.050
767.00,0.050
768.00,0.050
769.00,0.050
770.00,0.050
771.00,0.050
772.00,0.050
773.00,0.050
774.00,0.050
775.00,0.050
776.00,0.050
777.00,0.050
778.00,0.050
779.00,0.049
780.00,0.049
781.00,0.049
782.00,0.049
783.00,0.049
784.00,0.049
785.00,0.049
786.00,0.049
787.00,0.049
788.00,0.049
789.00,0.049
790.00,0.048
791.00,0.048
792.00,0.048
793.00,0.048
794.00,0.048
795.00,0.048
796.00,0.048
797.00,0.048
798.00,0.048
799.00,0.047
800.00,0.047
801.00,0.047
802.00,0.047
803.00,0.047
804.00,0.047
805.00,0.047
806.00,0.047
807.00,0.047
808.00,0.047
809.00,0.047
810.00,0.047
811.00,0.047
812.00,0.047
813.00,0.047
814.00,0.047
815.00,0.047
816.00,0.047
817.00,0.047
818.00,0.047
819.00,0.047
820.00,0.048
821.00,0.048
822.00,0.048
823.00,0.048
824.00,0.049
825.00,0.049
826.00,0.049
827.00,0.050
828.00,0.050
829.00,0.051
830.00,0.052
831.00,0.052
832.00,0.053
833.00,0.053
834.00,0.053
835.00,0.054
836.00,0.054
837.00,0.054
838.00,0.054
839.00,0.054
840.00,0.054
841.00,0.054
842.00,0.055
843.00,0.055
844.00,0.055
845.00,0.055
846.00,0.055
847.00,0.055
848.00,0.055
849.00,0.055
850.00,0.056
851.00,0.056
852.00,0.056
853.00,0.056
854.00,0.056
855.00,0.056
856.00,0.056
857.00,0.056
858.00,0.057
859.00,0.057
860.00,0.057
861.00,0.057
862.00,0.057
863.00,0.057
864.00,0.057
865.00,0.057
866.00,0.057
867.00,0.058
868.00,0.058
869.00,0.058
870.00,0.058
871.00,0.058
872.00,0.058
873.00,0.059
874.00,0.059
875.00,0.059
876.00,0.059
877.00,0.059
878.00,0.060
879.00,0.060
880.00,0.060
881.00,0.060
882.00,0.060
883.00,0.061
884.00,0.061
885.00,0.061
886.00,0.061
887.00,0.062
888.00,0.062
889.00,0.062
890.00,0.062
891.00,0.063
892.00,0.063
893.00,0.063
894.00,0.063
895.00,0.064
896.00,0.064
897.00,0.064
898.00,0.064
899.00,0.065
900.00,0.065
