"SMaltRousse50x - RawData"
"Wavelength nm.","Abs."
190.00,3.979
191.00,3.823
192.00,4.000
193.00,4.000
194.00,3.933
195.00,3.982
196.00,3.968
197.00,3.991
198.00,3.983
199.00,3.994
200.00,3.984
201.00,3.969
202.00,3.950
203.00,3.978
204.00,3.958
205.00,3.966
206.00,3.965
207.00,3.948
208.00,3.864
209.00,3.672
210.00,3.415
211.00,3.317
212.00,3.180
213.00,3.023
214.00,2.874
215.00,2.771
216.00,2.653
217.00,2.549
218.00,2.430
219.00,2.322
220.00,2.216
221.00,2.120
222.00,2.025
223.00,1.930
224.00,1.838
225.00,1.748
226.00,1.658
227.00,1.570
228.00,1.483
229.00,1.406
230.00,1.330
231.00,1.262
232.00,1.200
233.00,1.144
234.00,1.095
235.00,1.053
236.00,1.018
237.00,0.989
238.00,0.963
239.00,0.942
240.00,0.926
241.00,0.913
242.00,0.905
243.00,0.901
244.00,0.900
245.00,0.900
246.00,0.902
247.00,0.905
248.00,0.910
249.00,0.916
250.00,0.921
251.00,0.928
252.00,0.936
253.00,0.943
254.00,0.950
255.00,0.957
256.00,0.964
257.00,0.970
258.00,0.974
259.00,0.977
260.00,0.980
261.00,0.983
262.00,0.985
263.00,0.988
264.00,0.990
265.00,0.992
266.00,0.992
267.00,0.992
268.00,0.990
269.00,0.988
270.00,0.984
271.00,0.979
272.00,0.973
273.00,0.967
274.00,0.959
275.00,0.950
276.00,0.941
277.00,0.930
278.00,0.918
279.00,0.904
280.00,0.891
281.00,0.878
282.00,0.863
283.00,0.847
284.00,0.830
285.00,0.813
286.00,0.796
287.00,0.779
288.00,0.762
289.00,0.745
290.00,0.726
291.00,0.707
292.00,0.690
293.00,0.675
294.00,0.661
295.00,0.648
296.00,0.637
297.00,0.627
298.00,0.616
299.00,0.605
300.00,0.595
301.00,0.586
302.00,0.577
303.00,0.568
304.00,0.559
305.00,0.550
306.00,0.542
307.00,0.533
308.00,0.524
309.00,0.515
310.00,0.507
311.00,0.499
312.00,0.490
313.00,0.483
314.00,0.475
315.00,0.468
316.00,0.460
317.00,0.452
318.00,0.444
319.00,0.436
320.00,0.429
321.00,0.421
322.00,0.413
323.00,0.405
324.00,0.398
325.00,0.389
326.00,0.381
327.00,0.373
328.00,0.365
329.00,0.358
330.00,0.350
331.00,0.342
332.00,0.335
333.00,0.328
334.00,0.320
335.00,0.313
336.00,0.307
337.00,0.300
338.00,0.293
339.00,0.287
340.00,0.281
341.00,0.273
342.00,0.266
343.00,0.260
344.00,0.255
345.00,0.249
346.00,0.244
347.00,0.239
348.00,0.233
349.00,0.228
350.00,0.223
351.00,0.219
352.00,0.214
353.00,0.210
354.00,0.206
355.00,0.202
356.00,0.198
357.00,0.194
358.00,0.190
359.00,0.186
360.00,0.183
361.00,0.179
362.00,0.176
363.00,0.173
364.00,0.170
365.00,0.167
366.00,0.165
367.00,0.162
368.00,0.160
369.00,0.157
370.00,0.155
371.00,0.152
372.00,0.150
373.00,0.148
374.00,0.145
375.00,0.143
376.00,0.141
377.00,0.139
378.00,0.137
379.00,0.135
380.00,0.133
381.00,0.131
382.00,0.129
383.00,0.128
384.00,0.126
385.00,0.124
386.00,0.123
387.00,0.121
388.00,0.120
389.00,0.118
390.00,0.117
391.00,0.115
392.00,0.114
393.00,0.113
394.00,0.111
395.00,0.110
396.00,0.109
397.00,0.108
398.00,0.107
399.00,0.106
400.00,0.104
401.00,0.103
402.00,0.102
403.00,0.101
404.00,0.100
405.00,0.099
406.00,0.098
407.00,0.097
408.00,0.096
409.00,0.096
410.00,0.095
411.00,0.094
412.00,0.093
413.00,0.092
414.00,0.091
415.00,0.091
416.00,0.090
417.00,0.089
418.00,0.089
419.00,0.088
420.00,0.087
421.00,0.086
422.00,0.086
423.00,0.085
424.00,0.085
425.00,0.084
426.00,0.083
427.00,0.083
428.00,0.082
429.00,0.081
430.00,0.081
431.00,0.080
432.00,0.080
433.00,0.079
434.00,0.078
435.00,0.078
436.00,0.077
437.00,0.077
438.00,0.076
439.00,0.076
440.00,0.075
441.00,0.075
442.00,0.074
443.00,0.074
444.00,0.073
445.00,0.073
446.00,0.072
447.00,0.072
448.00,0.072
449.00,0.071
450.00,0.071
451.00,0.070
452.00,0.070
453.00,0.069
454.00,0.069
455.00,0.068
456.00,0.068
457.00,0.068
458.00,0.067
459.00,0.067
460.00,0.066
461.00,0.066
462.00,0.066
463.00,0.065
464.00,0.065
465.00,0.065
466.00,0.064
467.00,0.064
468.00,0.064
469.00,0.063
470.00,0.063
471.00,0.063
472.00,0.062
473.00,0.062
474.00,0.062
475.00,0.061
476.00,0.061
477.00,0.061
478.00,0.060
479.00,0.060
480.00,0.060
481.00,0.059
482.00,0.059
483.00,0.059
484.00,0.058
485.00,0.058
486.00,0.058
487.00,0.058
488.00,0.057
489.00,0.057
490.00,0.057
491.00,0.056
492.00,0.056
493.00,0.056
494.00,0.056
495.00,0.055
496.00,0.055
497.00,0.055
498.00,0.055
499.00,0.054
500.00,0.054
501.00,0.054
502.00,0.054
503.00,0.054
504.00,0.053
505.00,0.053
506.00,0.053
507.00,0.053
508.00,0.053
509.00,0.052
510.00,0.052
511.00,0.052
512.00,0.052
513.00,0.052
514.00,0.051
515.00,0.051
516.00,0.051
517.00,0.051
518.00,0.051
519.00,0.051
520.00,0.050
521.00,0.050
522.00,0.050
523.00,0.050
524.00,0.050
525.00,0.050
526.00,0.049
527.00,0.049
528.00,0.049
529.00,0.049
530.00,0.049
531.00,0.049
532.00,0.048
533.00,0.048
534.00,0.048
535.00,0.048
536.00,0.048
537.00,0.048
538.00,0.048
539.00,0.047
540.00,0.047
541.00,0.047
542.00,0.047
543.00,0.047
544.00,0.047
545.00,0.047
546.00,0.047
547.00,0.046
548.00,0.046
549.00,0.046
550.00,0.046
551.00,0.046
552.00,0.046
553.00,0.046
554.00,0.046
555.00,0.046
556.00,0.046
557.00,0.045
558.00,0.045
559.00,0.045
560.00,0.045
561.00,0.045
562.00,0.045
563.00,0.045
564.00,0.045
565.00,0.045
566.00,0.045
567.00,0.044
568.00,0.044
569.00,0.044
570.00,0.044
571.00,0.044
572.00,0.044
573.00,0.044
574.00,0.044
575.00,0.044
576.00,0.044
577.00,0.044
578.00,0.044
579.00,0.044
580.00,0.044
581.00,0.044
582.00,0.044
583.00,0.043
584.00,0.043
585.00,0.043
586.00,0.043
587.00,0.043
588.00,0.043
589.00,0.043
590.00,0.043
591.00,0.043
592.00,0.043
593.00,0.043
594.00,0.043
595.00,0.043
596.00,0.043
597.00,0.043
598.00,0.043
599.00,0.043
600.00,0.043
601.00,0.043
602.00,0.043
603.00,0.043
604.00,0.043
605.00,0.043
606.00,0.043
607.00,0.043
608.00,0.043
609.00,0.043
610.00,0.042
611.00,0.042
612.00,0.042
613.00,0.042
614.00,0.042
615.00,0.042
616.00,0.042
617.00,0.042
618.00,0.042
619.00,0.042
620.00,0.042
621.00,0.042
622.00,0.042
623.00,0.042
624.00,0.042
625.00,0.042
626.00,0.042
627.00,0.042
628.00,0.042
629.00,0.042
630.00,0.042
631.00,0.042
632.00,0.042
633.00,0.042
634.00,0.042
635.00,0.041
636.00,0.041
637.00,0.041
638.00,0.041
639.00,0.041
640.00,0.041
641.00,0.041
642.00,0.041
643.00,0.041
644.00,0.041
645.00,0.041
646.00,0.041
647.00,0.041
648.00,0.041
649.00,0.041
650.00,0.041
651.00,0.041
652.00,0.041
653.00,0.041
654.00,0.041
655.00,0.041
656.00,0.041
657.00,0.041
658.00,0.041
659.00,0.041
660.00,0.041
661.00,0.041
662.00,0.041
663.00,0.041
664.00,0.041
665.00,0.041
666.00,0.041
667.00,0.041
668.00,0.041
669.00,0.041
670.00,0.041
671.00,0.041
672.00,0.041
673.00,0.041
674.00,0.040
675.00,0.041
676.00,0.041
677.00,0.041
678.00,0.041
679.00,0.041
680.00,0.041
681.00,0.040
682.00,0.040
683.00,0.041
684.00,0.040
685.00,0.040
686.00,0.040
687.00,0.040
688.00,0.040
689.00,0.040
690.00,0.040
691.00,0.040
692.00,0.040
693.00,0.040
694.00,0.040
695.00,0.040
696.00,0.040
697.00,0.041
698.00,0.041
699.00,0.041
700.00,0.041
701.00,0.041
702.00,0.041
703.00,0.041
704.00,0.041
705.00,0.041
706.00,0.041
707.00,0.041
708.00,0.041
709.00,0.041
710.00,0.041
711.00,0.041
712.00,0.041
713.00,0.042
714.00,0.042
715.00,0.042
716.00,0.042
717.00,0.042
718.00,0.043
719.00,0.043
720.00,0.043
721.00,0.043
722.00,0.043
723.00,0.043
724.00,0.044
725.00,0.044
726.00,0.044
727.00,0.045
728.00,0.045
729.00,0.045
730.00,0.046
731.00,0.046
732.00,0.047
733.00,0.047
734.00,0.048
735.00,0.048
736.00,0.048
737.00,0.049
738.00,0.049
739.00,0.049
740.00,0.049
741.00,0.049
742.00,0.049
743.00,0.049
744.00,0.049
745.00,0.049
746.00,0.049
747.00,0.049
748.00,0.049
749.00,0.049
750.00,0.049
751.00,0.049
752.00,0.049
753.00,0.049
754.00,0.049
755.00,0.049
756.00,0.049
757.00,0.049
758.00,0.049
759.00,0.049
760.00,0.049
761.00,0.049
762.00,0.049
763.00,0.049
764.00,0.049
765.00,0.049
766.00,0.049
767.00,0.048
768.00,0.048
769.00,0.048
770.00,0.048
771.00,0.048
772.00,0.048
773.00,0.048
774.00,0.048
775.00,0.048
776.00,0.048
777.00,0.048
778.00,0.048
779.00,0.048
780.00,0.048
781.00,0.048
782.00,0.047
783.00,0.047
784.00,0.047
785.00,0.047
786.00,0.047
787.00,0.047
788.00,0.047
789.00,0.047
790.00,0.047
791.00,0.046
792.00,0.046
793.00,0.046
794.00,0.046
795.00,0.046
796.00,0.046
797.00,0.046
798.00,0.046
799.00,0.046
800.00,0.046
801.00,0.046
802.00,0.045
803.00,0.045
804.00,0.045
805.00,0.045
806.00,0.045
807.00,0.045
808.00,0.045
809.00,0.045
810.00,0.045
811.00,0.045
812.00,0.045
813.00,0.045
814.00,0.045
815.00,0.045
816.00,0.045
817.00,0.045
818.00,0.046
819.00,0.046
820.00,0.046
821.00,0.046
822.00,0.046
823.00,0.046
824.00,0.047
825.00,0.047
826.00,0.048
827.00,0.048
828.00,0.048
829.00,0.049
830.00,0.050
831.00,0.050
832.00,0.051
833.00,0.051
834.00,0.051
835.00,0.052
836.00,0.052
837.00,0.052
838.00,0.052
839.00,0.052
840.00,0.052
841.00,0.052
842.00,0.053
843.00,0.053
844.00,0.053
845.00,0.053
846.00,0.053
847.00,0.053
848.00,0.053
849.00,0.053
850.00,0.053
851.00,0.054
852.00,0.054
853.00,0.054
854.00,0.054
855.00,0.054
856.00,0.054
857.00,0.054
858.00,0.054
859.00,0.054
860.00,0.054
861.00,0.055
862.00,0.055
863.00,0.055
864.00,0.055
865.00,0.055
866.00,0.055
867.00,0.055
868.00,0.055
869.00,0.055
870.00,0.056
871.00,0.056
872.00,0.056
873.00,0.056
874.00,0.056
875.00,0.057
876.00,0.057
877.00,0.057
878.00,0.057
879.00,0.057
880.00,0.058
881.00,0.058
882.00,0.058
883.00,0.058
884.00,0.059
885.00,0.059
886.00,0.059
887.00,0.059
888.00,0.059
889.00,0.060
890.00,0.060
891.00,0.060
892.00,0.060
893.00,0.061
894.00,0.061
895.00,0.061
896.00,0.061
897.00,0.062
898.00,0.062
899.00,0.062
900.00,0.062
