"SMaltSaisonSession50x - RawData"
"Wavelength nm.","Abs."
190.00,3.245
191.00,3.670
192.00,3.609
193.00,3.753
194.00,3.421
195.00,3.799
196.00,3.653
197.00,3.379
198.00,3.406
199.00,3.374
200.00,3.234
201.00,3.074
202.00,2.904
203.00,2.746
204.00,2.599
205.00,2.467
206.00,2.338
207.00,2.219
208.00,2.112
209.00,2.005
210.00,1.907
211.00,1.817
212.00,1.728
213.00,1.642
214.00,1.562
215.00,1.486
216.00,1.411
217.00,1.341
218.00,1.272
219.00,1.205
220.00,1.141
221.00,1.083
222.00,1.028
223.00,0.973
224.00,0.918
225.00,0.866
226.00,0.813
227.00,0.760
228.00,0.710
229.00,0.666
230.00,0.625
231.00,0.589
232.00,0.557
233.00,0.530
234.00,0.507
235.00,0.488
236.00,0.472
237.00,0.460
238.00,0.451
239.00,0.444
240.00,0.439
241.00,0.436
242.00,0.435
243.00,0.435
244.00,0.436
245.00,0.438
246.00,0.441
247.00,0.444
248.00,0.447
249.00,0.450
250.00,0.454
251.00,0.458
252.00,0.462
253.00,0.465
254.00,0.469
255.00,0.472
256.00,0.475
257.00,0.477
258.00,0.479
259.00,0.479
260.00,0.480
261.00,0.480
262.00,0.479
263.00,0.479
264.00,0.478
265.00,0.477
266.00,0.475
267.00,0.473
268.00,0.470
269.00,0.467
270.00,0.462
271.00,0.457
272.00,0.450
273.00,0.443
274.00,0.436
275.00,0.428
276.00,0.419
277.00,0.410
278.00,0.401
279.00,0.392
280.00,0.382
281.00,0.371
282.00,0.361
283.00,0.349
284.00,0.337
285.00,0.324
286.00,0.313
287.00,0.302
288.00,0.290
289.00,0.279
290.00,0.267
291.00,0.256
292.00,0.246
293.00,0.237
294.00,0.229
295.00,0.222
296.00,0.217
297.00,0.212
298.00,0.207
299.00,0.202
300.00,0.198
301.00,0.195
302.00,0.192
303.00,0.189
304.00,0.186
305.00,0.184
306.00,0.182
307.00,0.180
308.00,0.178
309.00,0.176
310.00,0.175
311.00,0.173
312.00,0.171
313.00,0.170
314.00,0.169
315.00,0.168
316.00,0.166
317.00,0.165
318.00,0.163
319.00,0.161
320.00,0.160
321.00,0.159
322.00,0.157
323.00,0.155
324.00,0.154
325.00,0.152
326.00,0.150
327.00,0.148
328.00,0.146
329.00,0.144
330.00,0.142
331.00,0.140
332.00,0.138
333.00,0.136
334.00,0.133
335.00,0.131
336.00,0.129
337.00,0.128
338.00,0.125
339.00,0.123
340.00,0.122
341.00,0.118
342.00,0.116
343.00,0.114
344.00,0.112
345.00,0.110
346.00,0.108
347.00,0.106
348.00,0.104
349.00,0.102
350.00,0.100
351.00,0.099
352.00,0.097
353.00,0.095
354.00,0.093
355.00,0.092
356.00,0.090
357.00,0.089
358.00,0.087
359.00,0.086
360.00,0.084
361.00,0.083
362.00,0.082
363.00,0.081
364.00,0.080
365.00,0.079
366.00,0.078
367.00,0.077
368.00,0.076
369.00,0.075
370.00,0.074
371.00,0.073
372.00,0.072
373.00,0.072
374.00,0.071
375.00,0.070
376.00,0.069
377.00,0.068
378.00,0.068
379.00,0.067
380.00,0.066
381.00,0.066
382.00,0.065
383.00,0.064
384.00,0.064
385.00,0.063
386.00,0.062
387.00,0.062
388.00,0.062
389.00,0.061
390.00,0.060
391.00,0.060
392.00,0.059
393.00,0.059
394.00,0.059
395.00,0.058
396.00,0.058
397.00,0.057
398.00,0.057
399.00,0.057
400.00,0.056
401.00,0.056
402.00,0.055
403.00,0.055
404.00,0.055
405.00,0.055
406.00,0.054
407.00,0.054
408.00,0.054
409.00,0.053
410.00,0.053
411.00,0.053
412.00,0.053
413.00,0.053
414.00,0.052
415.00,0.052
416.00,0.052
417.00,0.052
418.00,0.052
419.00,0.052
420.00,0.051
421.00,0.051
422.00,0.051
423.00,0.051
424.00,0.051
425.00,0.051
426.00,0.050
427.00,0.050
428.00,0.050
429.00,0.050
430.00,0.050
431.00,0.050
432.00,0.050
433.00,0.050
434.00,0.050
435.00,0.049
436.00,0.049
437.00,0.049
438.00,0.049
439.00,0.049
440.00,0.049
441.00,0.049
442.00,0.049
443.00,0.049
444.00,0.048
445.00,0.048
446.00,0.048
447.00,0.048
448.00,0.048
449.00,0.048
450.00,0.048
451.00,0.048
452.00,0.048
453.00,0.048
454.00,0.048
455.00,0.048
456.00,0.048
457.00,0.047
458.00,0.047
459.00,0.047
460.00,0.047
461.00,0.047
462.00,0.047
463.00,0.047
464.00,0.047
465.00,0.047
466.00,0.047
467.00,0.047
468.00,0.047
469.00,0.047
470.00,0.046
471.00,0.046
472.00,0.046
473.00,0.046
474.00,0.046
475.00,0.046
476.00,0.046
477.00,0.046
478.00,0.046
479.00,0.046
480.00,0.046
481.00,0.046
482.00,0.046
483.00,0.046
484.00,0.045
485.00,0.045
486.00,0.045
487.00,0.045
488.00,0.045
489.00,0.045
490.00,0.045
491.00,0.045
492.00,0.045
493.00,0.045
494.00,0.045
495.00,0.045
496.00,0.045
497.00,0.045
498.00,0.045
499.00,0.045
500.00,0.045
501.00,0.045
502.00,0.045
503.00,0.045
504.00,0.044
505.00,0.044
506.00,0.044
507.00,0.044
508.00,0.044
509.00,0.044
510.00,0.044
511.00,0.044
512.00,0.044
513.00,0.044
514.00,0.044
515.00,0.044
516.00,0.044
517.00,0.044
518.00,0.044
519.00,0.044
520.00,0.044
521.00,0.044
522.00,0.044
523.00,0.044
524.00,0.044
525.00,0.044
526.00,0.044
527.00,0.043
528.00,0.043
529.00,0.043
530.00,0.043
531.00,0.043
532.00,0.043
533.00,0.043
534.00,0.043
535.00,0.043
536.00,0.043
537.00,0.043
538.00,0.043
539.00,0.043
540.00,0.043
541.00,0.043
542.00,0.043
543.00,0.043
544.00,0.043
545.00,0.043
546.00,0.043
547.00,0.043
548.00,0.043
549.00,0.043
550.00,0.043
551.00,0.043
552.00,0.043
553.00,0.043
554.00,0.043
555.00,0.042
556.00,0.042
557.00,0.042
558.00,0.042
559.00,0.042
560.00,0.042
561.00,0.042
562.00,0.042
563.00,0.042
564.00,0.042
565.00,0.042
566.00,0.042
567.00,0.042
568.00,0.042
569.00,0.042
570.00,0.042
571.00,0.042
572.00,0.042
573.00,0.042
574.00,0.042
575.00,0.042
576.00,0.042
577.00,0.042
578.00,0.042
579.00,0.042
580.00,0.042
581.00,0.042
582.00,0.042
583.00,0.042
584.00,0.042
585.00,0.042
586.00,0.042
587.00,0.042
588.00,0.042
589.00,0.042
590.00,0.042
591.00,0.042
592.00,0.042
593.00,0.042
594.00,0.042
595.00,0.042
596.00,0.042
597.00,0.042
598.00,0.042
599.00,0.042
600.00,0.042
601.00,0.042
602.00,0.042
603.00,0.042
604.00,0.042
605.00,0.042
606.00,0.042
607.00,0.042
608.00,0.042
609.00,0.042
610.00,0.042
611.00,0.042
612.00,0.042
613.00,0.042
614.00,0.042
615.00,0.042
616.00,0.042
617.00,0.042
618.00,0.042
619.00,0.042
620.00,0.042
621.00,0.042
622.00,0.042
623.00,0.042
624.00,0.042
625.00,0.042
626.00,0.042
627.00,0.042
628.00,0.042
629.00,0.042
630.00,0.041
631.00,0.042
632.00,0.042
633.00,0.042
634.00,0.041
635.00,0.041
636.00,0.041
637.00,0.041
638.00,0.041
639.00,0.041
640.00,0.041
641.00,0.041
642.00,0.041
643.00,0.041
644.00,0.041
645.00,0.041
646.00,0.041
647.00,0.041
648.00,0.041
649.00,0.041
650.00,0.041
651.00,0.041
652.00,0.041
653.00,0.041
654.00,0.041
655.00,0.041
656.00,0.041
657.00,0.041
658.00,0.041
659.00,0.041
660.00,0.041
661.00,0.041
662.00,0.041
663.00,0.041
664.00,0.041
665.00,0.041
666.00,0.041
667.00,0.041
668.00,0.041
669.00,0.041
670.00,0.041
671.00,0.041
672.00,0.041
673.00,0.041
674.00,0.041
675.00,0.041
676.00,0.041
677.00,0.041
678.00,0.041
679.00,0.041
680.00,0.041
681.00,0.041
682.00,0.041
683.00,0.041
684.00,0.041
685.00,0.041
686.00,0.041
687.00,0.041
688.00,0.041
689.00,0.041
690.00,0.041
691.00,0.041
692.00,0.041
693.00,0.041
694.00,0.041
695.00,0.041
696.00,0.041
697.00,0.041
698.00,0.041
699.00,0.041
700.00,0.042
701.00,0.042
702.00,0.042
703.00,0.042
704.00,0.042
705.00,0.042
706.00,0.042
707.00,0.042
708.00,0.042
709.00,0.042
710.00,0.042
711.00,0.042
712.00,0.042
713.00,0.043
714.00,0.043
715.00,0.043
716.00,0.043
717.00,0.043
718.00,0.043
719.00,0.044
720.00,0.044
721.00,0.044
722.00,0.044
723.00,0.044
724.00,0.045
725.00,0.045
726.00,0.045
727.00,0.046
728.00,0.046
729.00,0.046
730.00,0.047
731.00,0.047
732.00,0.048
733.00,0.048
734.00,0.049
735.00,0.049
736.00,0.049
737.00,0.050
738.00,0.050
739.00,0.050
740.00,0.050
741.00,0.050
742.00,0.050
743.00,0.050
744.00,0.050
745.00,0.050
746.00,0.050
747.00,0.050
748.00,0.050
749.00,0.050
750.00,0.050
751.00,0.050
752.00,0.050
753.00,0.050
754.00,0.050
755.00,0.050
756.00,0.050
757.00,0.050
758.00,0.050
759.00,0.050
760.00,0.050
761.00,0.050
762.00,0.050
763.00,0.050
764.00,0.050
765.00,0.050
766.00,0.050
767.00,0.050
768.00,0.050
769.00,0.050
770.00,0.050
771.00,0.050
772.00,0.049
773.00,0.049
774.00,0.049
775.00,0.049
776.00,0.049
777.00,0.049
778.00,0.049
779.00,0.049
780.00,0.049
781.00,0.049
782.00,0.049
783.00,0.049
784.00,0.048
785.00,0.048
786.00,0.048
787.00,0.048
788.00,0.048
789.00,0.048
790.00,0.048
791.00,0.048
792.00,0.048
793.00,0.048
794.00,0.047
795.00,0.047
796.00,0.047
797.00,0.047
798.00,0.047
799.00,0.047
800.00,0.047
801.00,0.047
802.00,0.047
803.00,0.047
804.00,0.047
805.00,0.047
806.00,0.046
807.00,0.046
808.00,0.046
809.00,0.046
810.00,0.046
811.00,0.046
812.00,0.047
813.00,0.047
814.00,0.047
815.00,0.047
816.00,0.047
817.00,0.047
818.00,0.047
819.00,0.047
820.00,0.047
821.00,0.047
822.00,0.048
823.00,0.048
824.00,0.048
825.00,0.048
826.00,0.049
827.00,0.049
828.00,0.050
829.00,0.050
830.00,0.051
831.00,0.052
832.00,0.052
833.00,0.052
834.00,0.053
835.00,0.053
836.00,0.053
837.00,0.053
838.00,0.053
839.00,0.054
840.00,0.054
841.00,0.054
842.00,0.054
843.00,0.054
844.00,0.054
845.00,0.054
846.00,0.054
847.00,0.055
848.00,0.055
849.00,0.055
850.00,0.055
851.00,0.055
852.00,0.055
853.00,0.055
854.00,0.055
855.00,0.055
856.00,0.056
857.00,0.056
858.00,0.056
859.00,0.056
860.00,0.056
861.00,0.056
862.00,0.056
863.00,0.056
864.00,0.056
865.00,0.056
866.00,0.057
867.00,0.057
868.00,0.057
869.00,0.057
870.00,0.057
871.00,0.057
872.00,0.057
873.00,0.058
874.00,0.058
875.00,0.058
876.00,0.058
877.00,0.058
878.00,0.059
879.00,0.059
880.00,0.059
881.00,0.059
882.00,0.060
883.00,0.060
884.00,0.060
885.00,0.060
886.00,0.061
887.00,0.061
888.00,0.061
889.00,0.061
890.00,0.061
891.00,0.062
892.00,0.062
893.00,0.062
894.00,0.062
895.00,0.063
896.00,0.063
897.00,0.063
898.00,0.063
899.00,0.064
900.00,0.064
