"SpinPaleAle50x - RawData"
"Wavelength nm.","Abs."
190.00,3.701
191.00,3.612
192.00,3.383
193.00,3.575
194.00,3.730
195.00,3.720
196.00,3.677
197.00,3.568
198.00,3.893
199.00,3.830
200.00,3.828
201.00,3.630
202.00,3.396
203.00,3.569
204.00,3.617
205.00,3.492
206.00,3.235
207.00,3.152
208.00,3.029
209.00,2.933
210.00,2.808
211.00,2.683
212.00,2.578
213.00,2.455
214.00,2.351
215.00,2.253
216.00,2.153
217.00,2.057
218.00,1.957
219.00,1.860
220.00,1.770
221.00,1.686
222.00,1.605
223.00,1.525
224.00,1.445
225.00,1.371
226.00,1.297
227.00,1.223
228.00,1.152
229.00,1.088
230.00,1.028
231.00,0.973
232.00,0.925
233.00,0.883
234.00,0.847
235.00,0.816
236.00,0.790
237.00,0.768
238.00,0.750
239.00,0.736
240.00,0.725
241.00,0.716
242.00,0.711
243.00,0.708
244.00,0.706
245.00,0.706
246.00,0.707
247.00,0.709
248.00,0.712
249.00,0.716
250.00,0.720
251.00,0.725
252.00,0.730
253.00,0.735
254.00,0.741
255.00,0.745
256.00,0.750
257.00,0.754
258.00,0.756
259.00,0.757
260.00,0.758
261.00,0.759
262.00,0.759
263.00,0.760
264.00,0.761
265.00,0.761
266.00,0.759
267.00,0.758
268.00,0.756
269.00,0.752
270.00,0.747
271.00,0.741
272.00,0.735
273.00,0.728
274.00,0.719
275.00,0.710
276.00,0.699
277.00,0.687
278.00,0.673
279.00,0.659
280.00,0.645
281.00,0.630
282.00,0.614
283.00,0.597
284.00,0.580
285.00,0.561
286.00,0.543
287.00,0.525
288.00,0.507
289.00,0.488
290.00,0.469
291.00,0.451
292.00,0.433
293.00,0.419
294.00,0.406
295.00,0.394
296.00,0.384
297.00,0.375
298.00,0.367
299.00,0.358
300.00,0.351
301.00,0.344
302.00,0.338
303.00,0.333
304.00,0.328
305.00,0.323
306.00,0.318
307.00,0.313
308.00,0.309
309.00,0.306
310.00,0.302
311.00,0.298
312.00,0.295
313.00,0.291
314.00,0.288
315.00,0.285
316.00,0.282
317.00,0.279
318.00,0.275
319.00,0.272
320.00,0.269
321.00,0.265
322.00,0.261
323.00,0.258
324.00,0.254
325.00,0.251
326.00,0.246
327.00,0.243
328.00,0.238
329.00,0.234
330.00,0.229
331.00,0.225
332.00,0.221
333.00,0.216
334.00,0.212
335.00,0.207
336.00,0.203
337.00,0.199
338.00,0.195
339.00,0.190
340.00,0.186
341.00,0.181
342.00,0.177
343.00,0.173
344.00,0.169
345.00,0.165
346.00,0.161
347.00,0.157
348.00,0.153
349.00,0.150
350.00,0.146
351.00,0.143
352.00,0.140
353.00,0.136
354.00,0.133
355.00,0.131
356.00,0.128
357.00,0.125
358.00,0.123
359.00,0.120
360.00,0.118
361.00,0.116
362.00,0.113
363.00,0.111
364.00,0.109
365.00,0.107
366.00,0.106
367.00,0.104
368.00,0.102
369.00,0.101
370.00,0.099
371.00,0.098
372.00,0.096
373.00,0.095
374.00,0.094
375.00,0.092
376.00,0.091
377.00,0.090
378.00,0.089
379.00,0.088
380.00,0.087
381.00,0.086
382.00,0.085
383.00,0.084
384.00,0.083
385.00,0.082
386.00,0.081
387.00,0.080
388.00,0.080
389.00,0.079
390.00,0.078
391.00,0.078
392.00,0.077
393.00,0.076
394.00,0.076
395.00,0.075
396.00,0.075
397.00,0.074
398.00,0.074
399.00,0.073
400.00,0.073
401.00,0.072
402.00,0.072
403.00,0.072
404.00,0.071
405.00,0.071
406.00,0.070
407.00,0.070
408.00,0.070
409.00,0.069
410.00,0.069
411.00,0.068
412.00,0.068
413.00,0.068
414.00,0.068
415.00,0.067
416.00,0.067
417.00,0.067
418.00,0.067
419.00,0.066
420.00,0.066
421.00,0.066
422.00,0.066
423.00,0.065
424.00,0.065
425.00,0.065
426.00,0.065
427.00,0.065
428.00,0.064
429.00,0.064
430.00,0.064
431.00,0.064
432.00,0.063
433.00,0.063
434.00,0.063
435.00,0.063
436.00,0.063
437.00,0.063
438.00,0.062
439.00,0.062
440.00,0.062
441.00,0.062
442.00,0.062
443.00,0.062
444.00,0.061
445.00,0.061
446.00,0.061
447.00,0.061
448.00,0.061
449.00,0.061
450.00,0.061
451.00,0.060
452.00,0.060
453.00,0.060
454.00,0.060
455.00,0.060
456.00,0.060
457.00,0.060
458.00,0.060
459.00,0.059
460.00,0.059
461.00,0.059
462.00,0.059
463.00,0.059
464.00,0.059
465.00,0.059
466.00,0.059
467.00,0.058
468.00,0.058
469.00,0.058
470.00,0.058
471.00,0.058
472.00,0.058
473.00,0.058
474.00,0.058
475.00,0.057
476.00,0.057
477.00,0.057
478.00,0.057
479.00,0.057
480.00,0.057
481.00,0.057
482.00,0.057
483.00,0.057
484.00,0.056
485.00,0.056
486.00,0.056
487.00,0.056
488.00,0.056
489.00,0.056
490.00,0.056
491.00,0.056
492.00,0.056
493.00,0.056
494.00,0.055
495.00,0.055
496.00,0.055
497.00,0.055
498.00,0.055
499.00,0.055
500.00,0.055
501.00,0.055
502.00,0.055
503.00,0.055
504.00,0.054
505.00,0.054
506.00,0.054
507.00,0.054
508.00,0.054
509.00,0.054
510.00,0.054
511.00,0.054
512.00,0.054
513.00,0.054
514.00,0.054
515.00,0.054
516.00,0.054
517.00,0.054
518.00,0.053
519.00,0.053
520.00,0.053
521.00,0.053
522.00,0.053
523.00,0.053
524.00,0.053
525.00,0.053
526.00,0.053
527.00,0.053
528.00,0.053
529.00,0.053
530.00,0.053
531.00,0.052
532.00,0.052
533.00,0.052
534.00,0.052
535.00,0.052
536.00,0.053
537.00,0.052
538.00,0.052
539.00,0.052
540.00,0.052
541.00,0.052
542.00,0.052
543.00,0.052
544.00,0.052
545.00,0.052
546.00,0.052
547.00,0.052
548.00,0.051
549.00,0.051
550.00,0.051
551.00,0.051
552.00,0.051
553.00,0.051
554.00,0.051
555.00,0.051
556.00,0.051
557.00,0.051
558.00,0.051
559.00,0.051
560.00,0.051
561.00,0.051
562.00,0.051
563.00,0.051
564.00,0.051
565.00,0.051
566.00,0.051
567.00,0.051
568.00,0.051
569.00,0.050
570.00,0.050
571.00,0.050
572.00,0.050
573.00,0.050
574.00,0.050
575.00,0.050
576.00,0.050
577.00,0.050
578.00,0.050
579.00,0.050
580.00,0.050
581.00,0.050
582.00,0.050
583.00,0.050
584.00,0.050
585.00,0.050
586.00,0.050
587.00,0.050
588.00,0.050
589.00,0.050
590.00,0.050
591.00,0.050
592.00,0.050
593.00,0.050
594.00,0.050
595.00,0.050
596.00,0.050
597.00,0.050
598.00,0.050
599.00,0.050
600.00,0.050
601.00,0.050
602.00,0.050
603.00,0.050
604.00,0.050
605.00,0.050
606.00,0.050
607.00,0.050
608.00,0.050
609.00,0.050
610.00,0.050
611.00,0.050
612.00,0.050
613.00,0.050
614.00,0.050
615.00,0.050
616.00,0.050
617.00,0.050
618.00,0.050
619.00,0.050
620.00,0.050
621.00,0.050
622.00,0.050
623.00,0.050
624.00,0.050
625.00,0.050
626.00,0.050
627.00,0.050
628.00,0.050
629.00,0.050
630.00,0.050
631.00,0.050
632.00,0.050
633.00,0.050
634.00,0.050
635.00,0.050
636.00,0.050
637.00,0.050
638.00,0.049
639.00,0.050
640.00,0.050
641.00,0.050
642.00,0.050
643.00,0.050
644.00,0.050
645.00,0.050
646.00,0.050
647.00,0.050
648.00,0.050
649.00,0.050
650.00,0.050
651.00,0.050
652.00,0.050
653.00,0.050
654.00,0.050
655.00,0.049
656.00,0.050
657.00,0.050
658.00,0.049
659.00,0.050
660.00,0.049
661.00,0.050
662.00,0.050
663.00,0.050
664.00,0.050
665.00,0.050
666.00,0.050
667.00,0.050
668.00,0.050
669.00,0.050
670.00,0.050
671.00,0.050
672.00,0.050
673.00,0.049
674.00,0.049
675.00,0.050
676.00,0.050
677.00,0.049
678.00,0.049
679.00,0.049
680.00,0.049
681.00,0.049
682.00,0.049
683.00,0.049
684.00,0.049
685.00,0.049
686.00,0.049
687.00,0.049
688.00,0.050
689.00,0.050
690.00,0.049
691.00,0.050
692.00,0.050
693.00,0.050
694.00,0.050
695.00,0.050
696.00,0.050
697.00,0.050
698.00,0.050
699.00,0.050
700.00,0.050
701.00,0.050
702.00,0.050
703.00,0.050
704.00,0.050
705.00,0.050
706.00,0.050
707.00,0.050
708.00,0.050
709.00,0.050
710.00,0.051
711.00,0.051
712.00,0.051
713.00,0.051
714.00,0.051
715.00,0.051
716.00,0.051
717.00,0.052
718.00,0.052
719.00,0.052
720.00,0.052
721.00,0.052
722.00,0.053
723.00,0.053
724.00,0.053
725.00,0.053
726.00,0.054
727.00,0.054
728.00,0.054
729.00,0.055
730.00,0.055
731.00,0.056
732.00,0.056
733.00,0.057
734.00,0.057
735.00,0.058
736.00,0.058
737.00,0.058
738.00,0.058
739.00,0.059
740.00,0.059
741.00,0.059
742.00,0.059
743.00,0.059
744.00,0.059
745.00,0.059
746.00,0.059
747.00,0.059
748.00,0.059
749.00,0.059
750.00,0.059
751.00,0.059
752.00,0.059
753.00,0.059
754.00,0.059
755.00,0.059
756.00,0.059
757.00,0.059
758.00,0.059
759.00,0.059
760.00,0.059
761.00,0.059
762.00,0.059
763.00,0.059
764.00,0.059
765.00,0.059
766.00,0.059
767.00,0.059
768.00,0.059
769.00,0.059
770.00,0.058
771.00,0.058
772.00,0.058
773.00,0.058
774.00,0.058
775.00,0.058
776.00,0.058
777.00,0.058
778.00,0.058
779.00,0.058
780.00,0.058
781.00,0.058
782.00,0.058
783.00,0.057
784.00,0.057
785.00,0.057
786.00,0.057
787.00,0.057
788.00,0.057
789.00,0.057
790.00,0.057
791.00,0.057
792.00,0.056
793.00,0.056
794.00,0.056
795.00,0.056
796.00,0.056
797.00,0.056
798.00,0.056
799.00,0.056
800.00,0.056
801.00,0.056
802.00,0.055
803.00,0.055
804.00,0.055
805.00,0.055
806.00,0.055
807.00,0.055
808.00,0.055
809.00,0.055
810.00,0.055
811.00,0.055
812.00,0.055
813.00,0.055
814.00,0.055
815.00,0.055
816.00,0.055
817.00,0.056
818.00,0.056
819.00,0.056
820.00,0.056
821.00,0.056
822.00,0.057
823.00,0.057
824.00,0.057
825.00,0.057
826.00,0.058
827.00,0.058
828.00,0.059
829.00,0.059
830.00,0.060
831.00,0.061
832.00,0.061
833.00,0.061
834.00,0.062
835.00,0.062
836.00,0.062
837.00,0.062
838.00,0.062
839.00,0.063
840.00,0.063
841.00,0.063
842.00,0.063
843.00,0.063
844.00,0.063
845.00,0.063
846.00,0.063
847.00,0.064
848.00,0.064
849.00,0.064
850.00,0.064
851.00,0.064
852.00,0.064
853.00,0.064
854.00,0.064
855.00,0.064
856.00,0.064
857.00,0.065
858.00,0.065
859.00,0.065
860.00,0.065
861.00,0.065
862.00,0.065
863.00,0.065
864.00,0.065
865.00,0.065
866.00,0.065
867.00,0.065
868.00,0.066
869.00,0.066
870.00,0.066
871.00,0.066
872.00,0.066
873.00,0.066
874.00,0.067
875.00,0.067
876.00,0.067
877.00,0.067
878.00,0.067
879.00,0.068
880.00,0.068
881.00,0.068
882.00,0.068
883.00,0.069
884.00,0.069
885.00,0.069
886.00,0.069
887.00,0.070
888.00,0.070
889.00,0.070
890.00,0.070
891.00,0.070
892.00,0.071
893.00,0.071
894.00,0.071
895.00,0.071
896.00,0.072
897.00,0.072
898.00,0.072
899.00,0.072
900.00,0.072
