"HefeweizenStHoublon100x - RawData"
"Wavelength nm.","Abs."
190.00,3.967
191.00,3.999
192.00,3.911
193.00,3.964
194.00,3.972
195.00,3.930
196.00,3.807
197.00,3.683
198.00,3.467
199.00,3.358
200.00,3.119
201.00,2.926
202.00,2.737
203.00,2.572
204.00,2.417
205.00,2.280
206.00,2.145
207.00,2.034
208.00,1.924
209.00,1.824
210.00,1.733
211.00,1.650
212.00,1.567
213.00,1.490
214.00,1.417
215.00,1.348
216.00,1.282
217.00,1.219
218.00,1.156
219.00,1.095
220.00,1.035
221.00,0.980
222.00,0.927
223.00,0.876
224.00,0.824
225.00,0.775
226.00,0.726
227.00,0.676
228.00,0.629
229.00,0.586
230.00,0.545
231.00,0.509
232.00,0.477
233.00,0.450
234.00,0.426
235.00,0.407
236.00,0.391
237.00,0.379
238.00,0.369
239.00,0.362
240.00,0.357
241.00,0.354
242.00,0.352
243.00,0.352
244.00,0.353
245.00,0.355
246.00,0.357
247.00,0.361
248.00,0.364
249.00,0.367
250.00,0.371
251.00,0.375
252.00,0.378
253.00,0.382
254.00,0.385
255.00,0.388
256.00,0.391
257.00,0.393
258.00,0.395
259.00,0.396
260.00,0.397
261.00,0.397
262.00,0.397
263.00,0.397
264.00,0.397
265.00,0.397
266.00,0.395
267.00,0.394
268.00,0.391
269.00,0.389
270.00,0.385
271.00,0.381
272.00,0.377
273.00,0.372
274.00,0.367
275.00,0.362
276.00,0.356
277.00,0.349
278.00,0.343
279.00,0.336
280.00,0.329
281.00,0.322
282.00,0.314
283.00,0.306
284.00,0.298
285.00,0.289
286.00,0.281
287.00,0.274
288.00,0.266
289.00,0.259
290.00,0.251
291.00,0.243
292.00,0.236
293.00,0.229
294.00,0.224
295.00,0.219
296.00,0.215
297.00,0.211
298.00,0.207
299.00,0.203
300.00,0.199
301.00,0.196
302.00,0.193
303.00,0.191
304.00,0.188
305.00,0.185
306.00,0.183
307.00,0.180
308.00,0.178
309.00,0.176
310.00,0.173
311.00,0.171
312.00,0.169
313.00,0.167
314.00,0.165
315.00,0.163
316.00,0.161
317.00,0.159
318.00,0.157
319.00,0.155
320.00,0.153
321.00,0.151
322.00,0.148
323.00,0.146
324.00,0.144
325.00,0.142
326.00,0.140
327.00,0.138
328.00,0.135
329.00,0.133
330.00,0.131
331.00,0.129
332.00,0.127
333.00,0.124
334.00,0.122
335.00,0.120
336.00,0.118
337.00,0.116
338.00,0.114
339.00,0.112
340.00,0.110
341.00,0.108
342.00,0.106
343.00,0.103
344.00,0.101
345.00,0.100
346.00,0.098
347.00,0.097
348.00,0.094
349.00,0.092
350.00,0.091
351.00,0.090
352.00,0.088
353.00,0.086
354.00,0.085
355.00,0.083
356.00,0.082
357.00,0.080
358.00,0.079
359.00,0.078
360.00,0.077
361.00,0.076
362.00,0.074
363.00,0.074
364.00,0.073
365.00,0.072
366.00,0.071
367.00,0.070
368.00,0.069
369.00,0.068
370.00,0.067
371.00,0.067
372.00,0.066
373.00,0.065
374.00,0.064
375.00,0.064
376.00,0.063
377.00,0.062
378.00,0.061
379.00,0.061
380.00,0.060
381.00,0.060
382.00,0.059
383.00,0.059
384.00,0.058
385.00,0.057
386.00,0.057
387.00,0.057
388.00,0.056
389.00,0.056
390.00,0.055
391.00,0.055
392.00,0.055
393.00,0.054
394.00,0.054
395.00,0.054
396.00,0.053
397.00,0.053
398.00,0.053
399.00,0.052
400.00,0.052
401.00,0.052
402.00,0.052
403.00,0.051
404.00,0.051
405.00,0.051
406.00,0.051
407.00,0.051
408.00,0.050
409.00,0.050
410.00,0.050
411.00,0.050
412.00,0.049
413.00,0.049
414.00,0.049
415.00,0.049
416.00,0.049
417.00,0.048
418.00,0.048
419.00,0.048
420.00,0.048
421.00,0.048
422.00,0.048
423.00,0.048
424.00,0.047
425.00,0.047
426.00,0.047
427.00,0.047
428.00,0.047
429.00,0.047
430.00,0.047
431.00,0.046
432.00,0.046
433.00,0.046
434.00,0.046
435.00,0.046
436.00,0.046
437.00,0.046
438.00,0.046
439.00,0.045
440.00,0.045
441.00,0.045
442.00,0.045
443.00,0.045
444.00,0.045
445.00,0.045
446.00,0.045
447.00,0.045
448.00,0.045
449.00,0.045
450.00,0.044
451.00,0.044
452.00,0.044
453.00,0.044
454.00,0.044
455.00,0.044
456.00,0.044
457.00,0.044
458.00,0.044
459.00,0.044
460.00,0.043
461.00,0.043
462.00,0.043
463.00,0.043
464.00,0.043
465.00,0.043
466.00,0.043
467.00,0.043
468.00,0.043
469.00,0.043
470.00,0.043
471.00,0.043
472.00,0.043
473.00,0.042
474.00,0.042
475.00,0.042
476.00,0.042
477.00,0.042
478.00,0.042
479.00,0.042
480.00,0.042
481.00,0.042
482.00,0.042
483.00,0.042
484.00,0.042
485.00,0.041
486.00,0.041
487.00,0.041
488.00,0.041
489.00,0.041
490.00,0.041
491.00,0.041
492.00,0.041
493.00,0.041
494.00,0.041
495.00,0.041
496.00,0.041
497.00,0.041
498.00,0.041
499.00,0.041
500.00,0.040
501.00,0.040
502.00,0.040
503.00,0.040
504.00,0.040
505.00,0.040
506.00,0.040
507.00,0.040
508.00,0.040
509.00,0.040
510.00,0.040
511.00,0.040
512.00,0.040
513.00,0.040
514.00,0.040
515.00,0.040
516.00,0.040
517.00,0.040
518.00,0.040
519.00,0.040
520.00,0.040
521.00,0.040
522.00,0.039
523.00,0.039
524.00,0.039
525.00,0.039
526.00,0.039
527.00,0.039
528.00,0.039
529.00,0.039
530.00,0.039
531.00,0.039
532.00,0.039
533.00,0.039
534.00,0.039
535.00,0.039
536.00,0.039
537.00,0.039
538.00,0.039
539.00,0.039
540.00,0.039
541.00,0.039
542.00,0.039
543.00,0.039
544.00,0.039
545.00,0.039
546.00,0.039
547.00,0.039
548.00,0.039
549.00,0.039
550.00,0.039
551.00,0.039
552.00,0.038
553.00,0.038
554.00,0.038
555.00,0.038
556.00,0.038
557.00,0.038
558.00,0.038
559.00,0.038
560.00,0.038
561.00,0.038
562.00,0.038
563.00,0.038
564.00,0.038
565.00,0.038
566.00,0.038
567.00,0.038
568.00,0.038
569.00,0.038
570.00,0.038
571.00,0.038
572.00,0.038
573.00,0.038
574.00,0.038
575.00,0.038
576.00,0.038
577.00,0.038
578.00,0.038
579.00,0.038
580.00,0.038
581.00,0.038
582.00,0.038
583.00,0.038
584.00,0.038
585.00,0.038
586.00,0.038
587.00,0.038
588.00,0.038
589.00,0.038
590.00,0.038
591.00,0.038
592.00,0.038
593.00,0.038
594.00,0.038
595.00,0.038
596.00,0.038
597.00,0.038
598.00,0.038
599.00,0.038
600.00,0.038
601.00,0.038
602.00,0.038
603.00,0.038
604.00,0.038
605.00,0.038
606.00,0.038
607.00,0.038
608.00,0.038
609.00,0.038
610.00,0.038
611.00,0.038
612.00,0.038
613.00,0.038
614.00,0.038
615.00,0.038
616.00,0.038
617.00,0.038
618.00,0.038
619.00,0.038
620.00,0.038
621.00,0.038
622.00,0.038
623.00,0.038
624.00,0.038
625.00,0.038
626.00,0.038
627.00,0.038
628.00,0.038
629.00,0.038
630.00,0.038
631.00,0.038
632.00,0.038
633.00,0.038
634.00,0.038
635.00,0.038
636.00,0.038
637.00,0.038
638.00,0.038
639.00,0.038
640.00,0.038
641.00,0.038
642.00,0.038
643.00,0.038
644.00,0.038
645.00,0.038
646.00,0.038
647.00,0.038
648.00,0.038
649.00,0.038
650.00,0.038
651.00,0.038
652.00,0.038
653.00,0.038
654.00,0.038
655.00,0.038
656.00,0.038
657.00,0.038
658.00,0.038
659.00,0.038
660.00,0.038
661.00,0.038
662.00,0.038
663.00,0.038
664.00,0.038
665.00,0.038
666.00,0.038
667.00,0.038
668.00,0.038
669.00,0.038
670.00,0.038
671.00,0.038
672.00,0.038
673.00,0.038
674.00,0.038
675.00,0.038
676.00,0.038
677.00,0.038
678.00,0.038
679.00,0.038
680.00,0.038
681.00,0.038
682.00,0.038
683.00,0.038
684.00,0.038
685.00,0.038
686.00,0.038
687.00,0.038
688.00,0.038
689.00,0.038
690.00,0.038
691.00,0.038
692.00,0.038
693.00,0.038
694.00,0.038
695.00,0.038
696.00,0.038
697.00,0.038
698.00,0.038
699.00,0.038
700.00,0.038
701.00,0.038
702.00,0.038
703.00,0.038
704.00,0.039
705.00,0.039
706.00,0.039
707.00,0.039
708.00,0.039
709.00,0.039
710.00,0.039
711.00,0.039
712.00,0.039
713.00,0.039
714.00,0.040
715.00,0.040
716.00,0.040
717.00,0.040
718.00,0.040
719.00,0.041
720.00,0.041
721.00,0.041
722.00,0.041
723.00,0.041
724.00,0.042
725.00,0.042
726.00,0.042
727.00,0.043
728.00,0.043
729.00,0.043
730.00,0.044
731.00,0.044
732.00,0.045
733.00,0.045
734.00,0.046
735.00,0.046
736.00,0.046
737.00,0.047
738.00,0.047
739.00,0.047
740.00,0.047
741.00,0.047
742.00,0.047
743.00,0.047
744.00,0.047
745.00,0.047
746.00,0.047
747.00,0.047
748.00,0.047
749.00,0.047
750.00,0.047
751.00,0.047
752.00,0.047
753.00,0.047
754.00,0.047
755.00,0.047
756.00,0.047
757.00,0.047
758.00,0.047
759.00,0.047
760.00,0.048
761.00,0.047
762.00,0.047
763.00,0.047
764.00,0.047
765.00,0.047
766.00,0.047
767.00,0.047
768.00,0.047
769.00,0.047
770.00,0.047
771.00,0.047
772.00,0.047
773.00,0.047
774.00,0.047
775.00,0.047
776.00,0.046
777.00,0.046
778.00,0.046
779.00,0.046
780.00,0.046
781.00,0.046
782.00,0.046
783.00,0.046
784.00,0.046
785.00,0.046
786.00,0.046
787.00,0.046
788.00,0.045
789.00,0.045
790.00,0.045
791.00,0.045
792.00,0.045
793.00,0.045
794.00,0.045
795.00,0.045
796.00,0.045
797.00,0.044
798.00,0.044
799.00,0.044
800.00,0.044
801.00,0.044
802.00,0.044
803.00,0.044
804.00,0.044
805.00,0.044
806.00,0.044
807.00,0.044
808.00,0.044
809.00,0.044
810.00,0.044
811.00,0.044
812.00,0.044
813.00,0.044
814.00,0.044
815.00,0.044
816.00,0.044
817.00,0.044
818.00,0.044
819.00,0.045
820.00,0.045
821.00,0.045
822.00,0.045
823.00,0.045
824.00,0.046
825.00,0.046
826.00,0.046
827.00,0.047
828.00,0.047
829.00,0.048
830.00,0.049
831.00,0.049
832.00,0.050
833.00,0.050
834.00,0.050
835.00,0.051
836.00,0.051
837.00,0.051
838.00,0.051
839.00,0.051
840.00,0.051
841.00,0.052
842.00,0.052
843.00,0.052
844.00,0.052
845.00,0.052
846.00,0.052
847.00,0.052
848.00,0.052
849.00,0.053
850.00,0.053
851.00,0.053
852.00,0.053
853.00,0.053
854.00,0.053
855.00,0.053
856.00,0.053
857.00,0.054
858.00,0.054
859.00,0.054
860.00,0.054
861.00,0.054
862.00,0.054
863.00,0.054
864.00,0.054
865.00,0.054
866.00,0.055
867.00,0.055
868.00,0.055
869.00,0.055
870.00,0.055
871.00,0.055
872.00,0.056
873.00,0.056
874.00,0.056
875.00,0.056
876.00,0.056
877.00,0.057
878.00,0.057
879.00,0.057
880.00,0.057
881.00,0.057
882.00,0.058
883.00,0.058
884.00,0.058
885.00,0.058
886.00,0.059
887.00,0.059
888.00,0.059
889.00,0.059
890.00,0.060
891.00,0.060
892.00,0.060
893.00,0.060
894.00,0.061
895.00,0.061
896.00,0.061
897.00,0.061
898.00,0.062
899.00,0.062
900.00,0.062
