"SuttonBlackLynx_100x - RawData"
"Wavelength nm.","Abs."
190.00,3.027
191.00,3.119
192.00,3.226
193.00,3.177
194.00,3.133
195.00,3.228
196.00,3.320
197.00,3.362
198.00,3.535
199.00,3.543
200.00,3.602
201.00,3.574
202.00,3.688
203.00,3.454
204.00,3.386
205.00,3.240
206.00,3.249
207.00,3.182
208.00,3.090
209.00,3.006
210.00,2.898
211.00,2.788
212.00,2.703
213.00,2.616
214.00,2.527
215.00,2.435
216.00,2.354
217.00,2.279
218.00,2.204
219.00,2.126
220.00,2.048
221.00,1.978
222.00,1.904
223.00,1.838
224.00,1.769
225.00,1.703
226.00,1.639
227.00,1.573
228.00,1.511
229.00,1.452
230.00,1.394
231.00,1.341
232.00,1.291
233.00,1.245
234.00,1.204
235.00,1.167
236.00,1.136
237.00,1.108
238.00,1.082
239.00,1.060
240.00,1.040
241.00,1.024
242.00,1.012
243.00,1.003
244.00,0.997
245.00,0.992
246.00,0.988
247.00,0.986
248.00,0.985
249.00,0.985
250.00,0.985
251.00,0.986
252.00,0.988
253.00,0.990
254.00,0.992
255.00,0.994
256.00,0.996
257.00,0.997
258.00,0.999
259.00,0.999
260.00,0.998
261.00,0.998
262.00,0.998
263.00,0.998
264.00,0.997
265.00,0.996
266.00,0.995
267.00,0.993
268.00,0.990
269.00,0.986
270.00,0.981
271.00,0.976
272.00,0.970
273.00,0.964
274.00,0.957
275.00,0.948
276.00,0.939
277.00,0.929
278.00,0.919
279.00,0.908
280.00,0.896
281.00,0.884
282.00,0.871
283.00,0.857
284.00,0.842
285.00,0.827
286.00,0.812
287.00,0.797
288.00,0.781
289.00,0.766
290.00,0.749
291.00,0.733
292.00,0.717
293.00,0.703
294.00,0.689
295.00,0.677
296.00,0.665
297.00,0.655
298.00,0.644
299.00,0.633
300.00,0.624
301.00,0.615
302.00,0.606
303.00,0.597
304.00,0.589
305.00,0.581
306.00,0.574
307.00,0.566
308.00,0.559
309.00,0.552
310.00,0.546
311.00,0.539
312.00,0.533
313.00,0.528
314.00,0.522
315.00,0.517
316.00,0.512
317.00,0.506
318.00,0.501
319.00,0.496
320.00,0.491
321.00,0.486
322.00,0.480
323.00,0.475
324.00,0.470
325.00,0.464
326.00,0.459
327.00,0.454
328.00,0.449
329.00,0.444
330.00,0.438
331.00,0.433
332.00,0.428
333.00,0.423
334.00,0.418
335.00,0.413
336.00,0.408
337.00,0.404
338.00,0.398
339.00,0.394
340.00,0.390
341.00,0.384
342.00,0.379
343.00,0.374
344.00,0.370
345.00,0.365
346.00,0.361
347.00,0.357
348.00,0.353
349.00,0.349
350.00,0.344
351.00,0.341
352.00,0.337
353.00,0.333
354.00,0.329
355.00,0.325
356.00,0.322
357.00,0.318
358.00,0.315
359.00,0.311
360.00,0.307
361.00,0.304
362.00,0.301
363.00,0.297
364.00,0.294
365.00,0.291
366.00,0.288
367.00,0.285
368.00,0.282
369.00,0.279
370.00,0.276
371.00,0.274
372.00,0.270
373.00,0.268
374.00,0.265
375.00,0.262
376.00,0.260
377.00,0.257
378.00,0.254
379.00,0.252
380.00,0.249
381.00,0.246
382.00,0.244
383.00,0.241
384.00,0.239
385.00,0.236
386.00,0.234
387.00,0.232
388.00,0.229
389.00,0.227
390.00,0.225
391.00,0.223
392.00,0.220
393.00,0.218
394.00,0.216
395.00,0.214
396.00,0.212
397.00,0.210
398.00,0.208
399.00,0.206
400.00,0.204
401.00,0.202
402.00,0.201
403.00,0.199
404.00,0.197
405.00,0.195
406.00,0.193
407.00,0.192
408.00,0.190
409.00,0.188
410.00,0.187
411.00,0.185
412.00,0.183
413.00,0.182
414.00,0.180
415.00,0.178
416.00,0.177
417.00,0.176
418.00,0.174
419.00,0.173
420.00,0.171
421.00,0.170
422.00,0.168
423.00,0.167
424.00,0.165
425.00,0.164
426.00,0.163
427.00,0.161
428.00,0.160
429.00,0.159
430.00,0.157
431.00,0.156
432.00,0.155
433.00,0.153
434.00,0.152
435.00,0.151
436.00,0.150
437.00,0.149
438.00,0.147
439.00,0.146
440.00,0.145
441.00,0.144
442.00,0.143
443.00,0.142
444.00,0.141
445.00,0.140
446.00,0.139
447.00,0.138
448.00,0.136
449.00,0.135
450.00,0.135
451.00,0.133
452.00,0.133
453.00,0.132
454.00,0.131
455.00,0.130
456.00,0.129
457.00,0.128
458.00,0.127
459.00,0.126
460.00,0.125
461.00,0.124
462.00,0.123
463.00,0.122
464.00,0.122
465.00,0.121
466.00,0.120
467.00,0.119
468.00,0.118
469.00,0.117
470.00,0.117
471.00,0.116
472.00,0.115
473.00,0.114
474.00,0.113
475.00,0.113
476.00,0.112
477.00,0.111
478.00,0.110
479.00,0.109
480.00,0.109
481.00,0.108
482.00,0.107
483.00,0.106
484.00,0.106
485.00,0.105
486.00,0.104
487.00,0.104
488.00,0.103
489.00,0.102
490.00,0.102
491.00,0.101
492.00,0.100
493.00,0.100
494.00,0.099
495.00,0.098
496.00,0.098
497.00,0.097
498.00,0.097
499.00,0.096
500.00,0.095
501.00,0.095
502.00,0.094
503.00,0.094
504.00,0.093
505.00,0.093
506.00,0.092
507.00,0.092
508.00,0.091
509.00,0.090
510.00,0.090
511.00,0.089
512.00,0.089
513.00,0.088
514.00,0.088
515.00,0.087
516.00,0.087
517.00,0.086
518.00,0.086
519.00,0.085
520.00,0.085
521.00,0.085
522.00,0.084
523.00,0.084
524.00,0.083
525.00,0.083
526.00,0.082
527.00,0.082
528.00,0.081
529.00,0.081
530.00,0.080
531.00,0.080
532.00,0.079
533.00,0.079
534.00,0.079
535.00,0.078
536.00,0.078
537.00,0.077
538.00,0.077
539.00,0.077
540.00,0.076
541.00,0.076
542.00,0.075
543.00,0.075
544.00,0.075
545.00,0.074
546.00,0.074
547.00,0.073
548.00,0.073
549.00,0.073
550.00,0.073
551.00,0.072
552.00,0.072
553.00,0.071
554.00,0.071
555.00,0.071
556.00,0.070
557.00,0.070
558.00,0.070
559.00,0.069
560.00,0.069
561.00,0.069
562.00,0.069
563.00,0.068
564.00,0.068
565.00,0.068
566.00,0.067
567.00,0.067
568.00,0.067
569.00,0.067
570.00,0.066
571.00,0.066
572.00,0.066
573.00,0.065
574.00,0.065
575.00,0.065
576.00,0.065
577.00,0.064
578.00,0.064
579.00,0.064
580.00,0.064
581.00,0.063
582.00,0.063
583.00,0.063
584.00,0.063
585.00,0.062
586.00,0.062
587.00,0.062
588.00,0.062
589.00,0.062
590.00,0.061
591.00,0.061
592.00,0.061
593.00,0.061
594.00,0.061
595.00,0.061
596.00,0.060
597.00,0.060
598.00,0.060
599.00,0.060
600.00,0.060
601.00,0.060
602.00,0.059
603.00,0.059
604.00,0.059
605.00,0.059
606.00,0.059
607.00,0.058
608.00,0.058
609.00,0.058
610.00,0.058
611.00,0.058
612.00,0.057
613.00,0.057
614.00,0.057
615.00,0.057
616.00,0.057
617.00,0.057
618.00,0.056
619.00,0.056
620.00,0.056
621.00,0.056
622.00,0.056
623.00,0.056
624.00,0.055
625.00,0.055
626.00,0.055
627.00,0.055
628.00,0.055
629.00,0.055
630.00,0.054
631.00,0.054
632.00,0.054
633.00,0.054
634.00,0.054
635.00,0.054
636.00,0.054
637.00,0.053
638.00,0.053
639.00,0.053
640.00,0.053
641.00,0.053
642.00,0.053
643.00,0.053
644.00,0.052
645.00,0.052
646.00,0.052
647.00,0.052
648.00,0.052
649.00,0.052
650.00,0.052
651.00,0.051
652.00,0.052
653.00,0.051
654.00,0.051
655.00,0.051
656.00,0.051
657.00,0.051
658.00,0.051
659.00,0.051
660.00,0.051
661.00,0.051
662.00,0.051
663.00,0.050
664.00,0.050
665.00,0.050
666.00,0.050
667.00,0.050
668.00,0.050
669.00,0.050
670.00,0.050
671.00,0.050
672.00,0.050
673.00,0.049
674.00,0.049
675.00,0.049
676.00,0.049
677.00,0.049
678.00,0.049
679.00,0.049
680.00,0.049
681.00,0.049
682.00,0.049
683.00,0.049
684.00,0.049
685.00,0.048
686.00,0.048
687.00,0.048
688.00,0.048
689.00,0.048
690.00,0.048
691.00,0.048
692.00,0.048
693.00,0.048
694.00,0.048
695.00,0.048
696.00,0.048
697.00,0.048
698.00,0.048
699.00,0.048
700.00,0.048
701.00,0.048
702.00,0.048
703.00,0.048
704.00,0.048
705.00,0.048
706.00,0.048
707.00,0.048
708.00,0.048
709.00,0.048
710.00,0.048
711.00,0.048
712.00,0.048
713.00,0.048
714.00,0.048
715.00,0.048
716.00,0.048
717.00,0.048
718.00,0.048
719.00,0.049
720.00,0.049
721.00,0.049
722.00,0.049
723.00,0.049
724.00,0.049
725.00,0.050
726.00,0.050
727.00,0.050
728.00,0.051
729.00,0.051
730.00,0.051
731.00,0.052
732.00,0.052
733.00,0.053
734.00,0.053
735.00,0.053
736.00,0.054
737.00,0.054
738.00,0.054
739.00,0.054
740.00,0.054
741.00,0.054
742.00,0.054
743.00,0.054
744.00,0.054
745.00,0.054
746.00,0.054
747.00,0.054
748.00,0.054
749.00,0.054
750.00,0.054
751.00,0.054
752.00,0.054
753.00,0.054
754.00,0.053
755.00,0.053
756.00,0.053
757.00,0.053
758.00,0.053
759.00,0.053
760.00,0.054
761.00,0.053
762.00,0.053
763.00,0.053
764.00,0.053
765.00,0.053
766.00,0.053
767.00,0.053
768.00,0.053
769.00,0.052
770.00,0.052
771.00,0.052
772.00,0.052
773.00,0.052
774.00,0.052
775.00,0.052
776.00,0.052
777.00,0.052
778.00,0.051
779.00,0.051
780.00,0.051
781.00,0.051
782.00,0.051
783.00,0.051
784.00,0.051
785.00,0.051
786.00,0.051
787.00,0.050
788.00,0.050
789.00,0.050
790.00,0.050
791.00,0.050
792.00,0.050
793.00,0.050
794.00,0.049
795.00,0.049
796.00,0.049
797.00,0.049
798.00,0.049
799.00,0.049
800.00,0.049
801.00,0.049
802.00,0.048
803.00,0.048
804.00,0.048
805.00,0.048
806.00,0.048
807.00,0.048
808.00,0.048
809.00,0.048
810.00,0.048
811.00,0.048
812.00,0.048
813.00,0.048
814.00,0.048
815.00,0.048
816.00,0.048
817.00,0.048
818.00,0.048
819.00,0.048
820.00,0.049
821.00,0.049
822.00,0.049
823.00,0.049
824.00,0.049
825.00,0.050
826.00,0.050
827.00,0.051
828.00,0.051
829.00,0.052
830.00,0.052
831.00,0.053
832.00,0.053
833.00,0.054
834.00,0.054
835.00,0.054
836.00,0.054
837.00,0.055
838.00,0.055
839.00,0.055
840.00,0.055
841.00,0.055
842.00,0.055
843.00,0.055
844.00,0.055
845.00,0.055
846.00,0.055
847.00,0.056
848.00,0.056
849.00,0.056
850.00,0.056
851.00,0.056
852.00,0.056
853.00,0.056
854.00,0.056
855.00,0.056
856.00,0.056
857.00,0.057
858.00,0.057
859.00,0.057
860.00,0.057
861.00,0.057
862.00,0.057
863.00,0.057
864.00,0.057
865.00,0.057
866.00,0.057
867.00,0.058
868.00,0.058
869.00,0.058
870.00,0.058
871.00,0.058
872.00,0.058
873.00,0.058
874.00,0.059
875.00,0.059
876.00,0.059
877.00,0.059
878.00,0.059
879.00,0.059
880.00,0.060
881.00,0.060
882.00,0.060
883.00,0.060
884.00,0.061
885.00,0.061
886.00,0.061
887.00,0.061
888.00,0.062
889.00,0.062
890.00,0.062
891.00,0.062
892.00,0.062
893.00,0.063
894.00,0.063
895.00,0.063
896.00,0.063
897.00,0.064
898.00,0.064
899.00,0.064
900.00,0.064
