"SuttonIroquois_100x - RawData"
"Wavelength nm.","Abs."
190.00,1.607
191.00,1.736
192.00,1.795
193.00,1.863
194.00,1.950
195.00,2.002
196.00,2.066
197.00,2.091
198.00,2.133
199.00,2.174
200.00,2.198
201.00,2.218
202.00,2.237
203.00,2.257
204.00,2.252
205.00,2.263
206.00,2.257
207.00,2.251
208.00,2.232
209.00,2.202
210.00,2.161
211.00,2.127
212.00,2.084
213.00,2.038
214.00,1.989
215.00,1.936
216.00,1.882
217.00,1.833
218.00,1.776
219.00,1.721
220.00,1.666
221.00,1.615
222.00,1.563
223.00,1.513
224.00,1.461
225.00,1.410
226.00,1.359
227.00,1.308
228.00,1.257
229.00,1.209
230.00,1.161
231.00,1.118
232.00,1.078
233.00,1.040
234.00,1.007
235.00,0.977
236.00,0.951
237.00,0.927
238.00,0.905
239.00,0.887
240.00,0.870
241.00,0.856
242.00,0.845
243.00,0.836
244.00,0.829
245.00,0.824
246.00,0.819
247.00,0.816
248.00,0.813
249.00,0.811
250.00,0.810
251.00,0.809
252.00,0.809
253.00,0.810
254.00,0.811
255.00,0.812
256.00,0.813
257.00,0.814
258.00,0.814
259.00,0.814
260.00,0.814
261.00,0.814
262.00,0.814
263.00,0.814
264.00,0.814
265.00,0.813
266.00,0.813
267.00,0.812
268.00,0.811
269.00,0.809
270.00,0.807
271.00,0.804
272.00,0.800
273.00,0.794
274.00,0.789
275.00,0.783
276.00,0.777
277.00,0.770
278.00,0.762
279.00,0.754
280.00,0.745
281.00,0.736
282.00,0.726
283.00,0.715
284.00,0.704
285.00,0.691
286.00,0.679
287.00,0.666
288.00,0.653
289.00,0.639
290.00,0.625
291.00,0.612
292.00,0.598
293.00,0.586
294.00,0.575
295.00,0.564
296.00,0.554
297.00,0.545
298.00,0.536
299.00,0.526
300.00,0.518
301.00,0.510
302.00,0.502
303.00,0.495
304.00,0.488
305.00,0.481
306.00,0.471
307.00,0.464
308.00,0.457
309.00,0.451
310.00,0.445
311.00,0.440
312.00,0.434
313.00,0.429
314.00,0.424
315.00,0.419
316.00,0.414
317.00,0.410
318.00,0.405
319.00,0.400
320.00,0.395
321.00,0.391
322.00,0.386
323.00,0.381
324.00,0.377
325.00,0.372
326.00,0.368
327.00,0.363
328.00,0.358
329.00,0.353
330.00,0.349
331.00,0.344
332.00,0.339
333.00,0.335
334.00,0.330
335.00,0.326
336.00,0.322
337.00,0.318
338.00,0.313
339.00,0.309
340.00,0.306
341.00,0.300
342.00,0.296
343.00,0.292
344.00,0.289
345.00,0.286
346.00,0.283
347.00,0.279
348.00,0.277
349.00,0.273
350.00,0.270
351.00,0.267
352.00,0.264
353.00,0.261
354.00,0.258
355.00,0.255
356.00,0.252
357.00,0.250
358.00,0.247
359.00,0.244
360.00,0.242
361.00,0.239
362.00,0.236
363.00,0.234
364.00,0.232
365.00,0.230
366.00,0.228
367.00,0.226
368.00,0.224
369.00,0.222
370.00,0.220
371.00,0.218
372.00,0.216
373.00,0.214
374.00,0.212
375.00,0.210
376.00,0.208
377.00,0.206
378.00,0.204
379.00,0.201
380.00,0.199
381.00,0.197
382.00,0.196
383.00,0.194
384.00,0.192
385.00,0.190
386.00,0.188
387.00,0.186
388.00,0.184
389.00,0.182
390.00,0.181
391.00,0.179
392.00,0.177
393.00,0.175
394.00,0.174
395.00,0.172
396.00,0.170
397.00,0.169
398.00,0.167
399.00,0.166
400.00,0.164
401.00,0.163
402.00,0.161
403.00,0.160
404.00,0.158
405.00,0.157
406.00,0.155
407.00,0.154
408.00,0.152
409.00,0.151
410.00,0.150
411.00,0.148
412.00,0.147
413.00,0.146
414.00,0.145
415.00,0.143
416.00,0.142
417.00,0.141
418.00,0.140
419.00,0.139
420.00,0.137
421.00,0.136
422.00,0.135
423.00,0.134
424.00,0.133
425.00,0.132
426.00,0.131
427.00,0.130
428.00,0.129
429.00,0.128
430.00,0.127
431.00,0.126
432.00,0.125
433.00,0.124
434.00,0.123
435.00,0.122
436.00,0.121
437.00,0.120
438.00,0.119
439.00,0.118
440.00,0.117
441.00,0.117
442.00,0.116
443.00,0.115
444.00,0.114
445.00,0.113
446.00,0.112
447.00,0.112
448.00,0.111
449.00,0.110
450.00,0.109
451.00,0.109
452.00,0.108
453.00,0.107
454.00,0.106
455.00,0.106
456.00,0.105
457.00,0.104
458.00,0.104
459.00,0.103
460.00,0.102
461.00,0.102
462.00,0.101
463.00,0.100
464.00,0.100
465.00,0.099
466.00,0.098
467.00,0.098
468.00,0.097
469.00,0.096
470.00,0.096
471.00,0.095
472.00,0.095
473.00,0.094
474.00,0.093
475.00,0.093
476.00,0.092
477.00,0.092
478.00,0.091
479.00,0.091
480.00,0.090
481.00,0.090
482.00,0.089
483.00,0.088
484.00,0.088
485.00,0.087
486.00,0.087
487.00,0.086
488.00,0.086
489.00,0.085
490.00,0.085
491.00,0.084
492.00,0.084
493.00,0.083
494.00,0.083
495.00,0.083
496.00,0.082
497.00,0.082
498.00,0.081
499.00,0.081
500.00,0.080
501.00,0.080
502.00,0.079
503.00,0.079
504.00,0.078
505.00,0.078
506.00,0.078
507.00,0.077
508.00,0.077
509.00,0.076
510.00,0.076
511.00,0.076
512.00,0.075
513.00,0.075
514.00,0.074
515.00,0.074
516.00,0.074
517.00,0.073
518.00,0.073
519.00,0.073
520.00,0.072
521.00,0.072
522.00,0.072
523.00,0.071
524.00,0.071
525.00,0.070
526.00,0.070
527.00,0.070
528.00,0.069
529.00,0.069
530.00,0.069
531.00,0.068
532.00,0.068
533.00,0.068
534.00,0.067
535.00,0.067
536.00,0.067
537.00,0.067
538.00,0.066
539.00,0.066
540.00,0.066
541.00,0.065
542.00,0.065
543.00,0.065
544.00,0.064
545.00,0.064
546.00,0.064
547.00,0.064
548.00,0.063
549.00,0.063
550.00,0.063
551.00,0.063
552.00,0.062
553.00,0.062
554.00,0.062
555.00,0.062
556.00,0.061
557.00,0.061
558.00,0.061
559.00,0.061
560.00,0.060
561.00,0.060
562.00,0.060
563.00,0.060
564.00,0.060
565.00,0.059
566.00,0.059
567.00,0.059
568.00,0.059
569.00,0.059
570.00,0.058
571.00,0.058
572.00,0.058
573.00,0.058
574.00,0.057
575.00,0.057
576.00,0.057
577.00,0.057
578.00,0.057
579.00,0.056
580.00,0.056
581.00,0.056
582.00,0.056
583.00,0.056
584.00,0.056
585.00,0.055
586.00,0.055
587.00,0.055
588.00,0.055
589.00,0.055
590.00,0.055
591.00,0.055
592.00,0.054
593.00,0.054
594.00,0.054
595.00,0.054
596.00,0.054
597.00,0.054
598.00,0.054
599.00,0.054
600.00,0.053
601.00,0.053
602.00,0.053
603.00,0.053
604.00,0.053
605.00,0.053
606.00,0.053
607.00,0.052
608.00,0.052
609.00,0.052
610.00,0.052
611.00,0.052
612.00,0.052
613.00,0.052
614.00,0.051
615.00,0.051
616.00,0.051
617.00,0.051
618.00,0.051
619.00,0.051
620.00,0.051
621.00,0.051
622.00,0.050
623.00,0.050
624.00,0.050
625.00,0.050
626.00,0.050
627.00,0.050
628.00,0.050
629.00,0.050
630.00,0.049
631.00,0.049
632.00,0.049
633.00,0.049
634.00,0.049
635.00,0.049
636.00,0.049
637.00,0.049
638.00,0.049
639.00,0.049
640.00,0.048
641.00,0.048
642.00,0.048
643.00,0.048
644.00,0.048
645.00,0.048
646.00,0.048
647.00,0.048
648.00,0.048
649.00,0.048
650.00,0.048
651.00,0.047
652.00,0.047
653.00,0.047
654.00,0.047
655.00,0.047
656.00,0.047
657.00,0.047
658.00,0.047
659.00,0.047
660.00,0.047
661.00,0.047
662.00,0.047
663.00,0.047
664.00,0.047
665.00,0.047
666.00,0.046
667.00,0.046
668.00,0.046
669.00,0.046
670.00,0.046
671.00,0.046
672.00,0.046
673.00,0.046
674.00,0.046
675.00,0.046
676.00,0.046
677.00,0.046
678.00,0.046
679.00,0.046
680.00,0.046
681.00,0.045
682.00,0.045
683.00,0.045
684.00,0.045
685.00,0.045
686.00,0.045
687.00,0.045
688.00,0.045
689.00,0.045
690.00,0.045
691.00,0.045
692.00,0.045
693.00,0.045
694.00,0.045
695.00,0.045
696.00,0.045
697.00,0.045
698.00,0.045
699.00,0.045
700.00,0.045
701.00,0.045
702.00,0.045
703.00,0.045
704.00,0.045
705.00,0.045
706.00,0.045
707.00,0.045
708.00,0.045
709.00,0.045
710.00,0.045
711.00,0.045
712.00,0.045
713.00,0.045
714.00,0.045
715.00,0.046
716.00,0.046
717.00,0.046
718.00,0.046
719.00,0.046
720.00,0.046
721.00,0.047
722.00,0.047
723.00,0.047
724.00,0.047
725.00,0.048
726.00,0.048
727.00,0.048
728.00,0.048
729.00,0.049
730.00,0.049
731.00,0.050
732.00,0.050
733.00,0.051
734.00,0.051
735.00,0.051
736.00,0.052
737.00,0.052
738.00,0.052
739.00,0.052
740.00,0.052
741.00,0.052
742.00,0.052
743.00,0.052
744.00,0.052
745.00,0.052
746.00,0.052
747.00,0.052
748.00,0.052
749.00,0.052
750.00,0.052
751.00,0.052
752.00,0.052
753.00,0.052
754.00,0.052
755.00,0.052
756.00,0.052
757.00,0.052
758.00,0.052
759.00,0.052
760.00,0.052
761.00,0.052
762.00,0.051
763.00,0.051
764.00,0.051
765.00,0.051
766.00,0.051
767.00,0.051
768.00,0.051
769.00,0.051
770.00,0.051
771.00,0.051
772.00,0.051
773.00,0.051
774.00,0.050
775.00,0.050
776.00,0.050
777.00,0.050
778.00,0.050
779.00,0.050
780.00,0.050
781.00,0.050
782.00,0.049
783.00,0.049
784.00,0.049
785.00,0.049
786.00,0.049
787.00,0.049
788.00,0.049
789.00,0.049
790.00,0.049
791.00,0.049
792.00,0.048
793.00,0.048
794.00,0.048
795.00,0.048
796.00,0.048
797.00,0.048
798.00,0.048
799.00,0.048
800.00,0.048
801.00,0.047
802.00,0.047
803.00,0.047
804.00,0.047
805.00,0.047
806.00,0.047
807.00,0.047
808.00,0.047
809.00,0.047
810.00,0.047
811.00,0.047
812.00,0.047
813.00,0.047
814.00,0.047
815.00,0.047
816.00,0.047
817.00,0.047
818.00,0.047
819.00,0.048
820.00,0.048
821.00,0.048
822.00,0.048
823.00,0.048
824.00,0.049
825.00,0.049
826.00,0.049
827.00,0.050
828.00,0.050
829.00,0.051
830.00,0.051
831.00,0.052
832.00,0.052
833.00,0.053
834.00,0.053
835.00,0.053
836.00,0.054
837.00,0.054
838.00,0.054
839.00,0.054
840.00,0.054
841.00,0.054
842.00,0.054
843.00,0.054
844.00,0.055
845.00,0.055
846.00,0.055
847.00,0.055
848.00,0.055
849.00,0.055
850.00,0.055
851.00,0.055
852.00,0.055
853.00,0.055
854.00,0.056
855.00,0.056
856.00,0.056
857.00,0.056
858.00,0.056
859.00,0.056
860.00,0.056
861.00,0.056
862.00,0.056
863.00,0.056
864.00,0.056
865.00,0.056
866.00,0.057
867.00,0.057
868.00,0.057
869.00,0.057
870.00,0.057
871.00,0.057
872.00,0.057
873.00,0.058
874.00,0.058
875.00,0.058
876.00,0.058
877.00,0.058
878.00,0.059
879.00,0.059
880.00,0.059
881.00,0.059
882.00,0.060
883.00,0.060
884.00,0.060
885.00,0.060
886.00,0.060
887.00,0.061
888.00,0.061
889.00,0.061
890.00,0.061
891.00,0.062
892.00,0.062
893.00,0.062
894.00,0.062
895.00,0.062
896.00,0.063
897.00,0.063
898.00,0.063
899.00,0.063
900.00,0.064
