"TroisMousquetairesMicroRousse50x - RawData"
"Wavelength nm.","Abs."
190.00,3.978
191.00,3.644
192.00,3.788
193.00,3.738
194.00,3.796
195.00,3.816
196.00,3.850
197.00,3.563
198.00,3.919
199.00,3.931
200.00,3.908
201.00,3.857
202.00,3.974
203.00,3.872
204.00,3.931
205.00,3.968
206.00,3.984
207.00,3.969
208.00,3.798
209.00,3.948
210.00,3.757
211.00,3.965
212.00,3.791
213.00,3.544
214.00,3.445
215.00,3.291
216.00,3.218
217.00,3.054
218.00,2.933
219.00,2.803
220.00,2.673
221.00,2.556
222.00,2.437
223.00,2.322
224.00,2.209
225.00,2.101
226.00,1.992
227.00,1.880
228.00,1.773
229.00,1.673
230.00,1.577
231.00,1.490
232.00,1.412
233.00,1.342
234.00,1.281
235.00,1.229
236.00,1.184
237.00,1.147
238.00,1.116
239.00,1.090
240.00,1.069
241.00,1.052
242.00,1.042
243.00,1.034
244.00,1.029
245.00,1.026
246.00,1.025
247.00,1.025
248.00,1.026
249.00,1.030
250.00,1.034
251.00,1.038
252.00,1.044
253.00,1.049
254.00,1.055
255.00,1.060
256.00,1.066
257.00,1.072
258.00,1.076
259.00,1.079
260.00,1.082
261.00,1.084
262.00,1.087
263.00,1.090
264.00,1.092
265.00,1.093
266.00,1.093
267.00,1.093
268.00,1.092
269.00,1.089
270.00,1.086
271.00,1.081
272.00,1.075
273.00,1.070
274.00,1.063
275.00,1.055
276.00,1.045
277.00,1.034
278.00,1.021
279.00,1.008
280.00,0.995
281.00,0.981
282.00,0.967
283.00,0.950
284.00,0.932
285.00,0.913
286.00,0.897
287.00,0.880
288.00,0.862
289.00,0.845
290.00,0.826
291.00,0.807
292.00,0.789
293.00,0.774
294.00,0.760
295.00,0.748
296.00,0.737
297.00,0.726
298.00,0.715
299.00,0.705
300.00,0.696
301.00,0.686
302.00,0.676
303.00,0.667
304.00,0.657
305.00,0.647
306.00,0.637
307.00,0.627
308.00,0.617
309.00,0.607
310.00,0.597
311.00,0.587
312.00,0.578
313.00,0.569
314.00,0.559
315.00,0.550
316.00,0.540
317.00,0.531
318.00,0.521
319.00,0.512
320.00,0.502
321.00,0.493
322.00,0.483
323.00,0.473
324.00,0.464
325.00,0.454
326.00,0.444
327.00,0.435
328.00,0.426
329.00,0.416
330.00,0.406
331.00,0.397
332.00,0.389
333.00,0.380
334.00,0.370
335.00,0.362
336.00,0.354
337.00,0.346
338.00,0.336
339.00,0.329
340.00,0.322
341.00,0.313
342.00,0.305
343.00,0.298
344.00,0.291
345.00,0.284
346.00,0.277
347.00,0.271
348.00,0.265
349.00,0.259
350.00,0.253
351.00,0.247
352.00,0.242
353.00,0.237
354.00,0.231
355.00,0.227
356.00,0.222
357.00,0.217
358.00,0.213
359.00,0.208
360.00,0.204
361.00,0.200
362.00,0.196
363.00,0.193
364.00,0.189
365.00,0.186
366.00,0.183
367.00,0.179
368.00,0.177
369.00,0.173
370.00,0.170
371.00,0.167
372.00,0.165
373.00,0.162
374.00,0.160
375.00,0.157
376.00,0.155
377.00,0.152
378.00,0.150
379.00,0.147
380.00,0.145
381.00,0.143
382.00,0.141
383.00,0.139
384.00,0.137
385.00,0.135
386.00,0.133
387.00,0.131
388.00,0.129
389.00,0.128
390.00,0.126
391.00,0.124
392.00,0.123
393.00,0.121
394.00,0.120
395.00,0.118
396.00,0.117
397.00,0.116
398.00,0.114
399.00,0.113
400.00,0.112
401.00,0.110
402.00,0.109
403.00,0.108
404.00,0.107
405.00,0.106
406.00,0.105
407.00,0.104
408.00,0.103
409.00,0.101
410.00,0.100
411.00,0.100
412.00,0.099
413.00,0.098
414.00,0.097
415.00,0.096
416.00,0.095
417.00,0.094
418.00,0.093
419.00,0.092
420.00,0.092
421.00,0.091
422.00,0.090
423.00,0.089
424.00,0.088
425.00,0.088
426.00,0.087
427.00,0.086
428.00,0.085
429.00,0.085
430.00,0.084
431.00,0.083
432.00,0.083
433.00,0.082
434.00,0.081
435.00,0.081
436.00,0.080
437.00,0.080
438.00,0.079
439.00,0.079
440.00,0.078
441.00,0.077
442.00,0.077
443.00,0.076
444.00,0.076
445.00,0.075
446.00,0.075
447.00,0.074
448.00,0.074
449.00,0.073
450.00,0.073
451.00,0.072
452.00,0.072
453.00,0.071
454.00,0.071
455.00,0.070
456.00,0.070
457.00,0.070
458.00,0.069
459.00,0.069
460.00,0.068
461.00,0.068
462.00,0.067
463.00,0.067
464.00,0.067
465.00,0.066
466.00,0.066
467.00,0.065
468.00,0.065
469.00,0.065
470.00,0.064
471.00,0.064
472.00,0.064
473.00,0.063
474.00,0.063
475.00,0.063
476.00,0.062
477.00,0.062
478.00,0.061
479.00,0.061
480.00,0.061
481.00,0.060
482.00,0.060
483.00,0.060
484.00,0.059
485.00,0.059
486.00,0.059
487.00,0.058
488.00,0.058
489.00,0.058
490.00,0.058
491.00,0.057
492.00,0.057
493.00,0.057
494.00,0.056
495.00,0.056
496.00,0.056
497.00,0.056
498.00,0.055
499.00,0.055
500.00,0.055
501.00,0.055
502.00,0.054
503.00,0.054
504.00,0.054
505.00,0.054
506.00,0.053
507.00,0.053
508.00,0.053
509.00,0.053
510.00,0.053
511.00,0.052
512.00,0.052
513.00,0.052
514.00,0.052
515.00,0.052
516.00,0.051
517.00,0.051
518.00,0.051
519.00,0.051
520.00,0.051
521.00,0.050
522.00,0.050
523.00,0.050
524.00,0.050
525.00,0.050
526.00,0.049
527.00,0.049
528.00,0.049
529.00,0.049
530.00,0.049
531.00,0.049
532.00,0.048
533.00,0.048
534.00,0.048
535.00,0.048
536.00,0.048
537.00,0.048
538.00,0.048
539.00,0.047
540.00,0.047
541.00,0.047
542.00,0.047
543.00,0.047
544.00,0.047
545.00,0.047
546.00,0.046
547.00,0.046
548.00,0.046
549.00,0.046
550.00,0.046
551.00,0.046
552.00,0.046
553.00,0.046
554.00,0.045
555.00,0.045
556.00,0.045
557.00,0.045
558.00,0.045
559.00,0.045
560.00,0.045
561.00,0.045
562.00,0.045
563.00,0.044
564.00,0.044
565.00,0.044
566.00,0.044
567.00,0.044
568.00,0.044
569.00,0.044
570.00,0.044
571.00,0.044
572.00,0.044
573.00,0.043
574.00,0.043
575.00,0.043
576.00,0.043
577.00,0.043
578.00,0.043
579.00,0.043
580.00,0.043
581.00,0.043
582.00,0.043
583.00,0.043
584.00,0.043
585.00,0.043
586.00,0.043
587.00,0.043
588.00,0.042
589.00,0.042
590.00,0.042
591.00,0.042
592.00,0.042
593.00,0.042
594.00,0.042
595.00,0.042
596.00,0.042
597.00,0.042
598.00,0.042
599.00,0.042
600.00,0.042
601.00,0.042
602.00,0.042
603.00,0.042
604.00,0.042
605.00,0.042
606.00,0.042
607.00,0.042
608.00,0.042
609.00,0.042
610.00,0.042
611.00,0.042
612.00,0.042
613.00,0.042
614.00,0.042
615.00,0.041
616.00,0.041
617.00,0.041
618.00,0.041
619.00,0.041
620.00,0.041
621.00,0.041
622.00,0.041
623.00,0.041
624.00,0.041
625.00,0.041
626.00,0.041
627.00,0.041
628.00,0.041
629.00,0.041
630.00,0.041
631.00,0.041
632.00,0.041
633.00,0.041
634.00,0.041
635.00,0.040
636.00,0.040
637.00,0.040
638.00,0.040
639.00,0.040
640.00,0.040
641.00,0.040
642.00,0.040
643.00,0.040
644.00,0.040
645.00,0.040
646.00,0.040
647.00,0.040
648.00,0.040
649.00,0.040
650.00,0.040
651.00,0.040
652.00,0.040
653.00,0.040
654.00,0.040
655.00,0.040
656.00,0.040
657.00,0.040
658.00,0.040
659.00,0.040
660.00,0.040
661.00,0.040
662.00,0.040
663.00,0.040
664.00,0.040
665.00,0.040
666.00,0.040
667.00,0.040
668.00,0.040
669.00,0.040
670.00,0.040
671.00,0.040
672.00,0.040
673.00,0.040
674.00,0.040
675.00,0.040
676.00,0.040
677.00,0.040
678.00,0.039
679.00,0.039
680.00,0.039
681.00,0.039
682.00,0.039
683.00,0.039
684.00,0.039
685.00,0.040
686.00,0.040
687.00,0.039
688.00,0.039
689.00,0.039
690.00,0.039
691.00,0.039
692.00,0.039
693.00,0.039
694.00,0.039
695.00,0.040
696.00,0.040
697.00,0.040
698.00,0.040
699.00,0.040
700.00,0.040
701.00,0.040
702.00,0.040
703.00,0.040
704.00,0.040
705.00,0.040
706.00,0.040
707.00,0.040
708.00,0.040
709.00,0.040
710.00,0.040
711.00,0.040
712.00,0.040
713.00,0.041
714.00,0.041
715.00,0.041
716.00,0.041
717.00,0.041
718.00,0.041
719.00,0.042
720.00,0.042
721.00,0.042
722.00,0.042
723.00,0.043
724.00,0.043
725.00,0.043
726.00,0.043
727.00,0.044
728.00,0.044
729.00,0.044
730.00,0.045
731.00,0.045
732.00,0.046
733.00,0.046
734.00,0.047
735.00,0.047
736.00,0.047
737.00,0.048
738.00,0.048
739.00,0.048
740.00,0.048
741.00,0.048
742.00,0.048
743.00,0.048
744.00,0.048
745.00,0.048
746.00,0.048
747.00,0.048
748.00,0.048
749.00,0.048
750.00,0.048
751.00,0.048
752.00,0.048
753.00,0.048
754.00,0.048
755.00,0.048
756.00,0.048
757.00,0.048
758.00,0.048
759.00,0.048
760.00,0.048
761.00,0.048
762.00,0.048
763.00,0.048
764.00,0.048
765.00,0.048
766.00,0.048
767.00,0.048
768.00,0.048
769.00,0.048
770.00,0.048
771.00,0.048
772.00,0.047
773.00,0.047
774.00,0.047
775.00,0.047
776.00,0.047
777.00,0.047
778.00,0.047
779.00,0.047
780.00,0.047
781.00,0.047
782.00,0.047
783.00,0.046
784.00,0.046
785.00,0.046
786.00,0.046
787.00,0.046
788.00,0.046
789.00,0.046
790.00,0.046
791.00,0.046
792.00,0.045
793.00,0.045
794.00,0.045
795.00,0.045
796.00,0.045
797.00,0.045
798.00,0.045
799.00,0.045
800.00,0.045
801.00,0.045
802.00,0.045
803.00,0.045
804.00,0.044
805.00,0.045
806.00,0.044
807.00,0.044
808.00,0.044
809.00,0.044
810.00,0.044
811.00,0.044
812.00,0.044
813.00,0.044
814.00,0.044
815.00,0.045
816.00,0.045
817.00,0.045
818.00,0.045
819.00,0.045
820.00,0.045
821.00,0.045
822.00,0.045
823.00,0.046
824.00,0.046
825.00,0.046
826.00,0.047
827.00,0.047
828.00,0.048
829.00,0.048
830.00,0.049
831.00,0.050
832.00,0.050
833.00,0.050
834.00,0.051
835.00,0.051
836.00,0.051
837.00,0.051
838.00,0.052
839.00,0.052
840.00,0.052
841.00,0.052
842.00,0.052
843.00,0.052
844.00,0.052
845.00,0.052
846.00,0.053
847.00,0.053
848.00,0.053
849.00,0.053
850.00,0.053
851.00,0.053
852.00,0.053
853.00,0.053
854.00,0.054
855.00,0.054
856.00,0.054
857.00,0.054
858.00,0.054
859.00,0.054
860.00,0.054
861.00,0.054
862.00,0.054
863.00,0.055
864.00,0.055
865.00,0.055
866.00,0.055
867.00,0.055
868.00,0.055
869.00,0.055
870.00,0.056
871.00,0.056
872.00,0.056
873.00,0.056
874.00,0.056
875.00,0.057
876.00,0.057
877.00,0.057
878.00,0.057
879.00,0.057
880.00,0.058
881.00,0.058
882.00,0.058
883.00,0.058
884.00,0.059
885.00,0.059
886.00,0.059
887.00,0.059
888.00,0.060
889.00,0.060
890.00,0.060
891.00,0.060
892.00,0.061
893.00,0.061
894.00,0.061
895.00,0.061
896.00,0.062
897.00,0.062
898.00,0.062
899.00,0.062
900.00,0.062
