"UnibroueFinDuMonde50x - RawData"
"Wavelength nm.","Abs."
190.00,2.583
191.00,2.906
192.00,2.853
193.00,2.870
194.00,3.313
195.00,3.182
196.00,3.153
197.00,3.146
198.00,3.160
199.00,3.258
200.00,3.387
201.00,3.217
202.00,3.212
203.00,3.280
204.00,3.238
205.00,3.166
206.00,3.056
207.00,2.962
208.00,2.860
209.00,2.743
210.00,2.634
211.00,2.512
212.00,2.408
213.00,2.294
214.00,2.180
215.00,2.082
216.00,1.985
217.00,1.892
218.00,1.802
219.00,1.715
220.00,1.629
221.00,1.549
222.00,1.473
223.00,1.398
224.00,1.323
225.00,1.252
226.00,1.181
227.00,1.109
228.00,1.037
229.00,0.971
230.00,0.909
231.00,0.852
232.00,0.802
233.00,0.756
234.00,0.717
235.00,0.683
236.00,0.653
237.00,0.627
238.00,0.606
239.00,0.589
240.00,0.575
241.00,0.563
242.00,0.555
243.00,0.549
244.00,0.545
245.00,0.542
246.00,0.540
247.00,0.539
248.00,0.538
249.00,0.538
250.00,0.539
251.00,0.540
252.00,0.541
253.00,0.543
254.00,0.545
255.00,0.547
256.00,0.549
257.00,0.550
258.00,0.552
259.00,0.552
260.00,0.553
261.00,0.553
262.00,0.554
263.00,0.556
264.00,0.558
265.00,0.559
266.00,0.559
267.00,0.560
268.00,0.561
269.00,0.560
270.00,0.559
271.00,0.557
272.00,0.556
273.00,0.553
274.00,0.550
275.00,0.545
276.00,0.540
277.00,0.534
278.00,0.526
279.00,0.518
280.00,0.510
281.00,0.501
282.00,0.492
283.00,0.481
284.00,0.469
285.00,0.456
286.00,0.444
287.00,0.432
288.00,0.419
289.00,0.407
290.00,0.394
291.00,0.382
292.00,0.370
293.00,0.359
294.00,0.350
295.00,0.342
296.00,0.335
297.00,0.328
298.00,0.322
299.00,0.316
300.00,0.310
301.00,0.305
302.00,0.300
303.00,0.296
304.00,0.292
305.00,0.288
306.00,0.284
307.00,0.280
308.00,0.277
309.00,0.274
310.00,0.271
311.00,0.268
312.00,0.265
313.00,0.262
314.00,0.259
315.00,0.257
316.00,0.254
317.00,0.252
318.00,0.249
319.00,0.246
320.00,0.243
321.00,0.240
322.00,0.237
323.00,0.234
324.00,0.231
325.00,0.228
326.00,0.224
327.00,0.221
328.00,0.218
329.00,0.214
330.00,0.210
331.00,0.207
332.00,0.203
333.00,0.199
334.00,0.195
335.00,0.192
336.00,0.188
337.00,0.185
338.00,0.181
339.00,0.177
340.00,0.174
341.00,0.169
342.00,0.165
343.00,0.162
344.00,0.158
345.00,0.154
346.00,0.151
347.00,0.148
348.00,0.145
349.00,0.142
350.00,0.139
351.00,0.136
352.00,0.134
353.00,0.131
354.00,0.128
355.00,0.126
356.00,0.123
357.00,0.121
358.00,0.119
359.00,0.117
360.00,0.114
361.00,0.112
362.00,0.111
363.00,0.109
364.00,0.107
365.00,0.106
366.00,0.104
367.00,0.102
368.00,0.101
369.00,0.100
370.00,0.098
371.00,0.097
372.00,0.096
373.00,0.095
374.00,0.093
375.00,0.092
376.00,0.091
377.00,0.090
378.00,0.089
379.00,0.088
380.00,0.087
381.00,0.086
382.00,0.085
383.00,0.084
384.00,0.083
385.00,0.082
386.00,0.082
387.00,0.081
388.00,0.080
389.00,0.080
390.00,0.079
391.00,0.078
392.00,0.078
393.00,0.077
394.00,0.076
395.00,0.076
396.00,0.075
397.00,0.075
398.00,0.075
399.00,0.074
400.00,0.073
401.00,0.073
402.00,0.073
403.00,0.072
404.00,0.072
405.00,0.071
406.00,0.071
407.00,0.071
408.00,0.070
409.00,0.070
410.00,0.070
411.00,0.069
412.00,0.069
413.00,0.069
414.00,0.068
415.00,0.068
416.00,0.068
417.00,0.068
418.00,0.068
419.00,0.067
420.00,0.067
421.00,0.067
422.00,0.066
423.00,0.066
424.00,0.066
425.00,0.066
426.00,0.066
427.00,0.065
428.00,0.065
429.00,0.065
430.00,0.065
431.00,0.064
432.00,0.064
433.00,0.064
434.00,0.064
435.00,0.064
436.00,0.064
437.00,0.063
438.00,0.063
439.00,0.063
440.00,0.063
441.00,0.063
442.00,0.062
443.00,0.062
444.00,0.062
445.00,0.062
446.00,0.062
447.00,0.062
448.00,0.062
449.00,0.061
450.00,0.061
451.00,0.061
452.00,0.061
453.00,0.061
454.00,0.061
455.00,0.061
456.00,0.060
457.00,0.060
458.00,0.060
459.00,0.060
460.00,0.060
461.00,0.060
462.00,0.060
463.00,0.059
464.00,0.059
465.00,0.059
466.00,0.059
467.00,0.059
468.00,0.059
469.00,0.059
470.00,0.059
471.00,0.059
472.00,0.058
473.00,0.058
474.00,0.058
475.00,0.058
476.00,0.058
477.00,0.058
478.00,0.058
479.00,0.058
480.00,0.058
481.00,0.057
482.00,0.057
483.00,0.057
484.00,0.057
485.00,0.057
486.00,0.057
487.00,0.057
488.00,0.057
489.00,0.057
490.00,0.056
491.00,0.056
492.00,0.056
493.00,0.056
494.00,0.056
495.00,0.056
496.00,0.056
497.00,0.056
498.00,0.056
499.00,0.056
500.00,0.056
501.00,0.055
502.00,0.055
503.00,0.055
504.00,0.055
505.00,0.055
506.00,0.055
507.00,0.055
508.00,0.055
509.00,0.055
510.00,0.055
511.00,0.055
512.00,0.055
513.00,0.055
514.00,0.055
515.00,0.054
516.00,0.054
517.00,0.054
518.00,0.054
519.00,0.054
520.00,0.054
521.00,0.054
522.00,0.054
523.00,0.054
524.00,0.054
525.00,0.054
526.00,0.054
527.00,0.054
528.00,0.054
529.00,0.053
530.00,0.053
531.00,0.053
532.00,0.053
533.00,0.053
534.00,0.053
535.00,0.053
536.00,0.053
537.00,0.053
538.00,0.053
539.00,0.053
540.00,0.053
541.00,0.053
542.00,0.053
543.00,0.052
544.00,0.052
545.00,0.052
546.00,0.052
547.00,0.052
548.00,0.052
549.00,0.052
550.00,0.052
551.00,0.052
552.00,0.052
553.00,0.052
554.00,0.052
555.00,0.052
556.00,0.052
557.00,0.052
558.00,0.052
559.00,0.052
560.00,0.052
561.00,0.052
562.00,0.052
563.00,0.052
564.00,0.052
565.00,0.052
566.00,0.052
567.00,0.052
568.00,0.052
569.00,0.052
570.00,0.052
571.00,0.051
572.00,0.051
573.00,0.051
574.00,0.051
575.00,0.051
576.00,0.051
577.00,0.051
578.00,0.051
579.00,0.051
580.00,0.051
581.00,0.051
582.00,0.051
583.00,0.051
584.00,0.051
585.00,0.051
586.00,0.051
587.00,0.051
588.00,0.051
589.00,0.051
590.00,0.051
591.00,0.051
592.00,0.051
593.00,0.051
594.00,0.051
595.00,0.051
596.00,0.051
597.00,0.051
598.00,0.051
599.00,0.051
600.00,0.051
601.00,0.051
602.00,0.051
603.00,0.051
604.00,0.051
605.00,0.051
606.00,0.051
607.00,0.051
608.00,0.051
609.00,0.051
610.00,0.051
611.00,0.051
612.00,0.051
613.00,0.051
614.00,0.051
615.00,0.051
616.00,0.051
617.00,0.051
618.00,0.051
619.00,0.051
620.00,0.051
621.00,0.051
622.00,0.051
623.00,0.050
624.00,0.050
625.00,0.051
626.00,0.050
627.00,0.050
628.00,0.050
629.00,0.050
630.00,0.050
631.00,0.050
632.00,0.050
633.00,0.050
634.00,0.050
635.00,0.050
636.00,0.050
637.00,0.050
638.00,0.050
639.00,0.050
640.00,0.050
641.00,0.050
642.00,0.050
643.00,0.050
644.00,0.050
645.00,0.050
646.00,0.050
647.00,0.050
648.00,0.050
649.00,0.050
650.00,0.050
651.00,0.050
652.00,0.050
653.00,0.050
654.00,0.050
655.00,0.050
656.00,0.050
657.00,0.050
658.00,0.050
659.00,0.050
660.00,0.050
661.00,0.050
662.00,0.050
663.00,0.050
664.00,0.050
665.00,0.050
666.00,0.050
667.00,0.050
668.00,0.050
669.00,0.050
670.00,0.050
671.00,0.050
672.00,0.050
673.00,0.050
674.00,0.050
675.00,0.050
676.00,0.050
677.00,0.049
678.00,0.049
679.00,0.049
680.00,0.049
681.00,0.049
682.00,0.049
683.00,0.049
684.00,0.049
685.00,0.049
686.00,0.049
687.00,0.049
688.00,0.049
689.00,0.049
690.00,0.049
691.00,0.049
692.00,0.049
693.00,0.049
694.00,0.049
695.00,0.049
696.00,0.050
697.00,0.050
698.00,0.050
699.00,0.050
700.00,0.050
701.00,0.050
702.00,0.050
703.00,0.050
704.00,0.050
705.00,0.050
706.00,0.050
707.00,0.050
708.00,0.050
709.00,0.050
710.00,0.050
711.00,0.050
712.00,0.051
713.00,0.051
714.00,0.051
715.00,0.051
716.00,0.051
717.00,0.051
718.00,0.051
719.00,0.052
720.00,0.052
721.00,0.052
722.00,0.052
723.00,0.052
724.00,0.053
725.00,0.053
726.00,0.053
727.00,0.054
728.00,0.054
729.00,0.054
730.00,0.055
731.00,0.055
732.00,0.056
733.00,0.056
734.00,0.057
735.00,0.057
736.00,0.057
737.00,0.058
738.00,0.058
739.00,0.058
740.00,0.058
741.00,0.058
742.00,0.058
743.00,0.058
744.00,0.058
745.00,0.058
746.00,0.058
747.00,0.058
748.00,0.058
749.00,0.058
750.00,0.058
751.00,0.058
752.00,0.058
753.00,0.058
754.00,0.058
755.00,0.058
756.00,0.058
757.00,0.058
758.00,0.058
759.00,0.058
760.00,0.058
761.00,0.058
762.00,0.058
763.00,0.058
764.00,0.058
765.00,0.058
766.00,0.058
767.00,0.058
768.00,0.058
769.00,0.058
770.00,0.058
771.00,0.057
772.00,0.057
773.00,0.057
774.00,0.057
775.00,0.057
776.00,0.057
777.00,0.057
778.00,0.057
779.00,0.057
780.00,0.057
781.00,0.057
782.00,0.056
783.00,0.056
784.00,0.056
785.00,0.056
786.00,0.056
787.00,0.056
788.00,0.056
789.00,0.056
790.00,0.056
791.00,0.056
792.00,0.055
793.00,0.055
794.00,0.055
795.00,0.055
796.00,0.055
797.00,0.055
798.00,0.055
799.00,0.055
800.00,0.055
801.00,0.054
802.00,0.054
803.00,0.054
804.00,0.054
805.00,0.054
806.00,0.054
807.00,0.054
808.00,0.054
809.00,0.054
810.00,0.054
811.00,0.054
812.00,0.054
813.00,0.054
814.00,0.054
815.00,0.054
816.00,0.054
817.00,0.055
818.00,0.055
819.00,0.055
820.00,0.055
821.00,0.055
822.00,0.055
823.00,0.055
824.00,0.056
825.00,0.056
826.00,0.056
827.00,0.057
828.00,0.057
829.00,0.058
830.00,0.059
831.00,0.059
832.00,0.060
833.00,0.060
834.00,0.060
835.00,0.061
836.00,0.061
837.00,0.061
838.00,0.061
839.00,0.061
840.00,0.061
841.00,0.061
842.00,0.061
843.00,0.062
844.00,0.062
845.00,0.062
846.00,0.062
847.00,0.062
848.00,0.062
849.00,0.062
850.00,0.062
851.00,0.062
852.00,0.063
853.00,0.063
854.00,0.063
855.00,0.063
856.00,0.063
857.00,0.063
858.00,0.063
859.00,0.063
860.00,0.063
861.00,0.063
862.00,0.063
863.00,0.064
864.00,0.064
865.00,0.064
866.00,0.064
867.00,0.064
868.00,0.064
869.00,0.064
870.00,0.064
871.00,0.065
872.00,0.065
873.00,0.065
874.00,0.065
875.00,0.065
876.00,0.065
877.00,0.066
878.00,0.066
879.00,0.066
880.00,0.066
881.00,0.067
882.00,0.067
883.00,0.067
884.00,0.067
885.00,0.068
886.00,0.068
887.00,0.068
888.00,0.068
889.00,0.068
890.00,0.069
891.00,0.069
892.00,0.069
893.00,0.069
894.00,0.070
895.00,0.070
896.00,0.070
897.00,0.070
898.00,0.070
899.00,0.071
900.00,0.071
