"UnibroueMaudite50x - RawData"
"Wavelength nm.","Abs."
190.00,2.553
191.00,2.864
192.00,2.772
193.00,2.897
194.00,3.069
195.00,3.135
196.00,3.083
197.00,3.284
198.00,3.330
199.00,3.235
200.00,3.215
201.00,3.290
202.00,3.188
203.00,3.261
204.00,3.291
205.00,3.282
206.00,3.275
207.00,3.278
208.00,3.211
209.00,3.136
210.00,3.043
211.00,2.948
212.00,2.851
213.00,2.742
214.00,2.633
215.00,2.522
216.00,2.428
217.00,2.325
218.00,2.224
219.00,2.116
220.00,2.016
221.00,1.923
222.00,1.835
223.00,1.751
224.00,1.665
225.00,1.582
226.00,1.502
227.00,1.419
228.00,1.337
229.00,1.262
230.00,1.190
231.00,1.124
232.00,1.064
233.00,1.009
234.00,0.962
235.00,0.921
236.00,0.885
237.00,0.855
238.00,0.829
239.00,0.808
240.00,0.790
241.00,0.775
242.00,0.764
243.00,0.757
244.00,0.751
245.00,0.747
246.00,0.745
247.00,0.744
248.00,0.744
249.00,0.745
250.00,0.747
251.00,0.749
252.00,0.752
253.00,0.756
254.00,0.759
255.00,0.763
256.00,0.767
257.00,0.770
258.00,0.772
259.00,0.774
260.00,0.775
261.00,0.776
262.00,0.777
263.00,0.779
264.00,0.781
265.00,0.782
266.00,0.783
267.00,0.783
268.00,0.783
269.00,0.781
270.00,0.778
271.00,0.774
272.00,0.770
273.00,0.765
274.00,0.759
275.00,0.751
276.00,0.743
277.00,0.734
278.00,0.723
279.00,0.711
280.00,0.700
281.00,0.687
282.00,0.674
283.00,0.659
284.00,0.644
285.00,0.627
286.00,0.611
287.00,0.594
288.00,0.577
289.00,0.560
290.00,0.543
291.00,0.526
292.00,0.510
293.00,0.496
294.00,0.484
295.00,0.472
296.00,0.463
297.00,0.454
298.00,0.445
299.00,0.437
300.00,0.429
301.00,0.422
302.00,0.415
303.00,0.409
304.00,0.404
305.00,0.398
306.00,0.393
307.00,0.388
308.00,0.383
309.00,0.378
310.00,0.374
311.00,0.369
312.00,0.365
313.00,0.361
314.00,0.357
315.00,0.353
316.00,0.349
317.00,0.346
318.00,0.341
319.00,0.337
320.00,0.333
321.00,0.328
322.00,0.324
323.00,0.319
324.00,0.315
325.00,0.310
326.00,0.305
327.00,0.300
328.00,0.295
329.00,0.290
330.00,0.284
331.00,0.279
332.00,0.274
333.00,0.269
334.00,0.263
335.00,0.258
336.00,0.253
337.00,0.248
338.00,0.243
339.00,0.238
340.00,0.233
341.00,0.226
342.00,0.221
343.00,0.216
344.00,0.212
345.00,0.207
346.00,0.203
347.00,0.198
348.00,0.194
349.00,0.190
350.00,0.186
351.00,0.183
352.00,0.179
353.00,0.175
354.00,0.172
355.00,0.168
356.00,0.165
357.00,0.162
358.00,0.159
359.00,0.156
360.00,0.153
361.00,0.151
362.00,0.148
363.00,0.146
364.00,0.144
365.00,0.142
366.00,0.139
367.00,0.137
368.00,0.135
369.00,0.133
370.00,0.131
371.00,0.130
372.00,0.128
373.00,0.126
374.00,0.125
375.00,0.123
376.00,0.122
377.00,0.120
378.00,0.119
379.00,0.117
380.00,0.116
381.00,0.115
382.00,0.113
383.00,0.112
384.00,0.111
385.00,0.110
386.00,0.109
387.00,0.108
388.00,0.107
389.00,0.105
390.00,0.105
391.00,0.104
392.00,0.103
393.00,0.102
394.00,0.101
395.00,0.100
396.00,0.099
397.00,0.099
398.00,0.098
399.00,0.097
400.00,0.096
401.00,0.096
402.00,0.095
403.00,0.094
404.00,0.094
405.00,0.093
406.00,0.093
407.00,0.092
408.00,0.092
409.00,0.091
410.00,0.090
411.00,0.090
412.00,0.089
413.00,0.089
414.00,0.088
415.00,0.088
416.00,0.087
417.00,0.087
418.00,0.087
419.00,0.086
420.00,0.086
421.00,0.085
422.00,0.085
423.00,0.084
424.00,0.084
425.00,0.084
426.00,0.083
427.00,0.083
428.00,0.082
429.00,0.082
430.00,0.082
431.00,0.081
432.00,0.081
433.00,0.080
434.00,0.080
435.00,0.080
436.00,0.079
437.00,0.079
438.00,0.079
439.00,0.078
440.00,0.078
441.00,0.078
442.00,0.077
443.00,0.077
444.00,0.077
445.00,0.076
446.00,0.076
447.00,0.076
448.00,0.075
449.00,0.075
450.00,0.075
451.00,0.074
452.00,0.074
453.00,0.074
454.00,0.074
455.00,0.073
456.00,0.073
457.00,0.073
458.00,0.073
459.00,0.072
460.00,0.072
461.00,0.072
462.00,0.071
463.00,0.071
464.00,0.071
465.00,0.071
466.00,0.071
467.00,0.070
468.00,0.070
469.00,0.070
470.00,0.070
471.00,0.069
472.00,0.069
473.00,0.069
474.00,0.069
475.00,0.068
476.00,0.068
477.00,0.068
478.00,0.068
479.00,0.068
480.00,0.067
481.00,0.067
482.00,0.067
483.00,0.067
484.00,0.066
485.00,0.066
486.00,0.066
487.00,0.066
488.00,0.066
489.00,0.065
490.00,0.065
491.00,0.065
492.00,0.065
493.00,0.065
494.00,0.064
495.00,0.064
496.00,0.064
497.00,0.064
498.00,0.064
499.00,0.064
500.00,0.063
501.00,0.063
502.00,0.063
503.00,0.063
504.00,0.063
505.00,0.063
506.00,0.062
507.00,0.062
508.00,0.062
509.00,0.062
510.00,0.062
511.00,0.062
512.00,0.062
513.00,0.061
514.00,0.061
515.00,0.061
516.00,0.061
517.00,0.061
518.00,0.061
519.00,0.061
520.00,0.060
521.00,0.060
522.00,0.060
523.00,0.060
524.00,0.060
525.00,0.060
526.00,0.060
527.00,0.059
528.00,0.059
529.00,0.059
530.00,0.059
531.00,0.059
532.00,0.059
533.00,0.059
534.00,0.059
535.00,0.058
536.00,0.059
537.00,0.058
538.00,0.058
539.00,0.058
540.00,0.058
541.00,0.058
542.00,0.058
543.00,0.057
544.00,0.057
545.00,0.057
546.00,0.057
547.00,0.057
548.00,0.057
549.00,0.057
550.00,0.057
551.00,0.057
552.00,0.057
553.00,0.056
554.00,0.056
555.00,0.056
556.00,0.056
557.00,0.056
558.00,0.056
559.00,0.056
560.00,0.056
561.00,0.056
562.00,0.056
563.00,0.056
564.00,0.056
565.00,0.055
566.00,0.055
567.00,0.055
568.00,0.055
569.00,0.055
570.00,0.055
571.00,0.055
572.00,0.055
573.00,0.055
574.00,0.055
575.00,0.055
576.00,0.055
577.00,0.055
578.00,0.055
579.00,0.054
580.00,0.054
581.00,0.054
582.00,0.054
583.00,0.054
584.00,0.054
585.00,0.054
586.00,0.054
587.00,0.054
588.00,0.054
589.00,0.054
590.00,0.054
591.00,0.054
592.00,0.054
593.00,0.054
594.00,0.054
595.00,0.054
596.00,0.054
597.00,0.054
598.00,0.054
599.00,0.054
600.00,0.054
601.00,0.054
602.00,0.054
603.00,0.054
604.00,0.053
605.00,0.053
606.00,0.053
607.00,0.053
608.00,0.053
609.00,0.053
610.00,0.053
611.00,0.053
612.00,0.053
613.00,0.053
614.00,0.053
615.00,0.053
616.00,0.053
617.00,0.053
618.00,0.053
619.00,0.053
620.00,0.053
621.00,0.053
622.00,0.053
623.00,0.053
624.00,0.053
625.00,0.053
626.00,0.052
627.00,0.052
628.00,0.052
629.00,0.052
630.00,0.052
631.00,0.052
632.00,0.052
633.00,0.052
634.00,0.052
635.00,0.052
636.00,0.052
637.00,0.052
638.00,0.052
639.00,0.052
640.00,0.052
641.00,0.052
642.00,0.052
643.00,0.052
644.00,0.052
645.00,0.052
646.00,0.052
647.00,0.052
648.00,0.052
649.00,0.052
650.00,0.052
651.00,0.052
652.00,0.052
653.00,0.052
654.00,0.051
655.00,0.051
656.00,0.052
657.00,0.051
658.00,0.051
659.00,0.051
660.00,0.051
661.00,0.051
662.00,0.051
663.00,0.051
664.00,0.051
665.00,0.051
666.00,0.051
667.00,0.051
668.00,0.051
669.00,0.051
670.00,0.051
671.00,0.051
672.00,0.051
673.00,0.051
674.00,0.051
675.00,0.051
676.00,0.051
677.00,0.051
678.00,0.051
679.00,0.051
680.00,0.051
681.00,0.051
682.00,0.051
683.00,0.051
684.00,0.051
685.00,0.051
686.00,0.051
687.00,0.051
688.00,0.051
689.00,0.051
690.00,0.051
691.00,0.051
692.00,0.051
693.00,0.051
694.00,0.051
695.00,0.051
696.00,0.051
697.00,0.051
698.00,0.051
699.00,0.051
700.00,0.051
701.00,0.051
702.00,0.051
703.00,0.051
704.00,0.051
705.00,0.051
706.00,0.051
707.00,0.051
708.00,0.051
709.00,0.051
710.00,0.051
711.00,0.052
712.00,0.052
713.00,0.052
714.00,0.052
715.00,0.052
716.00,0.052
717.00,0.052
718.00,0.053
719.00,0.053
720.00,0.053
721.00,0.053
722.00,0.053
723.00,0.054
724.00,0.054
725.00,0.054
726.00,0.054
727.00,0.055
728.00,0.055
729.00,0.055
730.00,0.056
731.00,0.056
732.00,0.057
733.00,0.057
734.00,0.058
735.00,0.058
736.00,0.058
737.00,0.059
738.00,0.059
739.00,0.059
740.00,0.059
741.00,0.059
742.00,0.059
743.00,0.059
744.00,0.059
745.00,0.059
746.00,0.059
747.00,0.059
748.00,0.059
749.00,0.059
750.00,0.059
751.00,0.059
752.00,0.059
753.00,0.059
754.00,0.059
755.00,0.059
756.00,0.059
757.00,0.059
758.00,0.059
759.00,0.059
760.00,0.059
761.00,0.059
762.00,0.059
763.00,0.059
764.00,0.059
765.00,0.059
766.00,0.058
767.00,0.058
768.00,0.058
769.00,0.058
770.00,0.058
771.00,0.058
772.00,0.058
773.00,0.058
774.00,0.058
775.00,0.058
776.00,0.058
777.00,0.058
778.00,0.058
779.00,0.057
780.00,0.057
781.00,0.057
782.00,0.057
783.00,0.057
784.00,0.057
785.00,0.057
786.00,0.057
787.00,0.057
788.00,0.057
789.00,0.057
790.00,0.056
791.00,0.056
792.00,0.056
793.00,0.056
794.00,0.056
795.00,0.056
796.00,0.056
797.00,0.056
798.00,0.055
799.00,0.055
800.00,0.055
801.00,0.055
802.00,0.055
803.00,0.055
804.00,0.055
805.00,0.055
806.00,0.055
807.00,0.055
808.00,0.055
809.00,0.055
810.00,0.055
811.00,0.055
812.00,0.055
813.00,0.055
814.00,0.055
815.00,0.055
816.00,0.055
817.00,0.055
818.00,0.055
819.00,0.055
820.00,0.055
821.00,0.056
822.00,0.056
823.00,0.056
824.00,0.056
825.00,0.057
826.00,0.057
827.00,0.058
828.00,0.058
829.00,0.059
830.00,0.059
831.00,0.060
832.00,0.060
833.00,0.061
834.00,0.061
835.00,0.061
836.00,0.061
837.00,0.062
838.00,0.062
839.00,0.062
840.00,0.062
841.00,0.062
842.00,0.062
843.00,0.062
844.00,0.062
845.00,0.062
846.00,0.062
847.00,0.063
848.00,0.063
849.00,0.063
850.00,0.063
851.00,0.063
852.00,0.063
853.00,0.063
854.00,0.063
855.00,0.063
856.00,0.063
857.00,0.064
858.00,0.064
859.00,0.064
860.00,0.064
861.00,0.064
862.00,0.064
863.00,0.064
864.00,0.064
865.00,0.064
866.00,0.064
867.00,0.064
868.00,0.065
869.00,0.065
870.00,0.065
871.00,0.065
872.00,0.065
873.00,0.065
874.00,0.066
875.00,0.066
876.00,0.066
877.00,0.066
878.00,0.066
879.00,0.067
880.00,0.067
881.00,0.067
882.00,0.067
883.00,0.067
884.00,0.068
885.00,0.068
886.00,0.068
887.00,0.068
888.00,0.069
889.00,0.069
890.00,0.069
891.00,0.069
892.00,0.069
893.00,0.070
894.00,0.070
895.00,0.070
896.00,0.071
897.00,0.071
898.00,0.071
899.00,0.071
900.00,0.071
