"UnibroueTroisPistoles100x - RawData"
"Wavelength nm.","Abs."
190.00,2.716
191.00,3.022
192.00,2.952
193.00,3.011
194.00,3.206
195.00,3.101
196.00,3.129
197.00,3.261
198.00,3.264
199.00,3.262
200.00,3.263
201.00,3.222
202.00,3.169
203.00,3.026
204.00,2.983
205.00,2.858
206.00,2.727
207.00,2.615
208.00,2.493
209.00,2.378
210.00,2.275
211.00,2.173
212.00,2.079
213.00,1.985
214.00,1.898
215.00,1.818
216.00,1.739
217.00,1.662
218.00,1.587
219.00,1.515
220.00,1.446
221.00,1.383
222.00,1.323
223.00,1.266
224.00,1.207
225.00,1.151
226.00,1.096
227.00,1.040
228.00,0.985
229.00,0.934
230.00,0.885
231.00,0.840
232.00,0.800
233.00,0.763
234.00,0.730
235.00,0.702
236.00,0.677
237.00,0.656
238.00,0.639
239.00,0.624
240.00,0.612
241.00,0.602
242.00,0.595
243.00,0.590
244.00,0.586
245.00,0.584
246.00,0.583
247.00,0.582
248.00,0.582
249.00,0.582
250.00,0.584
251.00,0.585
252.00,0.587
253.00,0.589
254.00,0.591
255.00,0.594
256.00,0.596
257.00,0.598
258.00,0.599
259.00,0.600
260.00,0.600
261.00,0.600
262.00,0.601
263.00,0.601
264.00,0.601
265.00,0.601
266.00,0.601
267.00,0.600
268.00,0.598
269.00,0.596
270.00,0.593
271.00,0.589
272.00,0.585
273.00,0.581
274.00,0.576
275.00,0.571
276.00,0.564
277.00,0.557
278.00,0.549
279.00,0.541
280.00,0.532
281.00,0.523
282.00,0.514
283.00,0.504
284.00,0.493
285.00,0.482
286.00,0.471
287.00,0.460
288.00,0.449
289.00,0.438
290.00,0.427
291.00,0.416
292.00,0.406
293.00,0.397
294.00,0.389
295.00,0.382
296.00,0.375
297.00,0.369
298.00,0.363
299.00,0.357
300.00,0.352
301.00,0.347
302.00,0.342
303.00,0.338
304.00,0.334
305.00,0.330
306.00,0.326
307.00,0.322
308.00,0.318
309.00,0.314
310.00,0.310
311.00,0.307
312.00,0.303
313.00,0.300
314.00,0.296
315.00,0.293
316.00,0.290
317.00,0.286
318.00,0.283
319.00,0.280
320.00,0.276
321.00,0.273
322.00,0.269
323.00,0.266
324.00,0.262
325.00,0.259
326.00,0.255
327.00,0.251
328.00,0.248
329.00,0.244
330.00,0.240
331.00,0.236
332.00,0.232
333.00,0.228
334.00,0.225
335.00,0.222
336.00,0.218
337.00,0.215
338.00,0.211
339.00,0.208
340.00,0.205
341.00,0.200
342.00,0.196
343.00,0.193
344.00,0.190
345.00,0.187
346.00,0.183
347.00,0.181
348.00,0.178
349.00,0.175
350.00,0.172
351.00,0.170
352.00,0.167
353.00,0.165
354.00,0.162
355.00,0.160
356.00,0.157
357.00,0.155
358.00,0.153
359.00,0.151
360.00,0.148
361.00,0.147
362.00,0.145
363.00,0.143
364.00,0.141
365.00,0.140
366.00,0.138
367.00,0.136
368.00,0.135
369.00,0.133
370.00,0.132
371.00,0.130
372.00,0.129
373.00,0.128
374.00,0.126
375.00,0.125
376.00,0.124
377.00,0.122
378.00,0.121
379.00,0.120
380.00,0.119
381.00,0.118
382.00,0.117
383.00,0.115
384.00,0.114
385.00,0.113
386.00,0.113
387.00,0.112
388.00,0.111
389.00,0.110
390.00,0.109
391.00,0.108
392.00,0.107
393.00,0.106
394.00,0.105
395.00,0.105
396.00,0.104
397.00,0.103
398.00,0.102
399.00,0.102
400.00,0.101
401.00,0.100
402.00,0.100
403.00,0.099
404.00,0.098
405.00,0.098
406.00,0.097
407.00,0.097
408.00,0.096
409.00,0.095
410.00,0.095
411.00,0.094
412.00,0.094
413.00,0.093
414.00,0.093
415.00,0.092
416.00,0.092
417.00,0.091
418.00,0.091
419.00,0.091
420.00,0.090
421.00,0.090
422.00,0.089
423.00,0.089
424.00,0.088
425.00,0.088
426.00,0.087
427.00,0.087
428.00,0.086
429.00,0.086
430.00,0.085
431.00,0.085
432.00,0.084
433.00,0.084
434.00,0.084
435.00,0.083
436.00,0.083
437.00,0.083
438.00,0.082
439.00,0.082
440.00,0.081
441.00,0.081
442.00,0.081
443.00,0.080
444.00,0.080
445.00,0.080
446.00,0.079
447.00,0.079
448.00,0.078
449.00,0.078
450.00,0.078
451.00,0.077
452.00,0.077
453.00,0.077
454.00,0.076
455.00,0.076
456.00,0.076
457.00,0.076
458.00,0.075
459.00,0.075
460.00,0.075
461.00,0.074
462.00,0.074
463.00,0.074
464.00,0.073
465.00,0.073
466.00,0.073
467.00,0.073
468.00,0.072
469.00,0.072
470.00,0.072
471.00,0.072
472.00,0.071
473.00,0.071
474.00,0.071
475.00,0.071
476.00,0.070
477.00,0.070
478.00,0.070
479.00,0.069
480.00,0.069
481.00,0.069
482.00,0.069
483.00,0.068
484.00,0.068
485.00,0.068
486.00,0.068
487.00,0.068
488.00,0.067
489.00,0.067
490.00,0.067
491.00,0.067
492.00,0.066
493.00,0.066
494.00,0.066
495.00,0.066
496.00,0.066
497.00,0.065
498.00,0.065
499.00,0.065
500.00,0.065
501.00,0.064
502.00,0.064
503.00,0.064
504.00,0.064
505.00,0.064
506.00,0.064
507.00,0.063
508.00,0.063
509.00,0.063
510.00,0.063
511.00,0.063
512.00,0.062
513.00,0.062
514.00,0.062
515.00,0.062
516.00,0.062
517.00,0.062
518.00,0.061
519.00,0.061
520.00,0.061
521.00,0.061
522.00,0.061
523.00,0.061
524.00,0.060
525.00,0.060
526.00,0.060
527.00,0.060
528.00,0.060
529.00,0.060
530.00,0.059
531.00,0.059
532.00,0.059
533.00,0.059
534.00,0.059
535.00,0.059
536.00,0.059
537.00,0.058
538.00,0.058
539.00,0.058
540.00,0.058
541.00,0.058
542.00,0.058
543.00,0.057
544.00,0.057
545.00,0.057
546.00,0.057
547.00,0.057
548.00,0.057
549.00,0.057
550.00,0.057
551.00,0.056
552.00,0.056
553.00,0.056
554.00,0.056
555.00,0.056
556.00,0.056
557.00,0.056
558.00,0.056
559.00,0.056
560.00,0.055
561.00,0.055
562.00,0.055
563.00,0.055
564.00,0.055
565.00,0.055
566.00,0.055
567.00,0.055
568.00,0.055
569.00,0.055
570.00,0.054
571.00,0.054
572.00,0.054
573.00,0.054
574.00,0.054
575.00,0.054
576.00,0.054
577.00,0.054
578.00,0.054
579.00,0.054
580.00,0.054
581.00,0.053
582.00,0.053
583.00,0.053
584.00,0.053
585.00,0.053
586.00,0.053
587.00,0.053
588.00,0.053
589.00,0.053
590.00,0.053
591.00,0.053
592.00,0.053
593.00,0.053
594.00,0.053
595.00,0.053
596.00,0.053
597.00,0.053
598.00,0.052
599.00,0.052
600.00,0.052
601.00,0.052
602.00,0.052
603.00,0.052
604.00,0.052
605.00,0.052
606.00,0.052
607.00,0.052
608.00,0.052
609.00,0.052
610.00,0.052
611.00,0.052
612.00,0.052
613.00,0.052
614.00,0.052
615.00,0.052
616.00,0.051
617.00,0.051
618.00,0.051
619.00,0.051
620.00,0.051
621.00,0.051
622.00,0.051
623.00,0.051
624.00,0.051
625.00,0.051
626.00,0.051
627.00,0.051
628.00,0.051
629.00,0.051
630.00,0.051
631.00,0.051
632.00,0.051
633.00,0.050
634.00,0.051
635.00,0.051
636.00,0.050
637.00,0.050
638.00,0.050
639.00,0.050
640.00,0.050
641.00,0.050
642.00,0.050
643.00,0.050
644.00,0.050
645.00,0.050
646.00,0.050
647.00,0.050
648.00,0.050
649.00,0.050
650.00,0.050
651.00,0.050
652.00,0.050
653.00,0.050
654.00,0.049
655.00,0.049
656.00,0.049
657.00,0.049
658.00,0.049
659.00,0.049
660.00,0.049
661.00,0.049
662.00,0.049
663.00,0.049
664.00,0.049
665.00,0.049
666.00,0.049
667.00,0.049
668.00,0.049
669.00,0.049
670.00,0.049
671.00,0.049
672.00,0.049
673.00,0.049
674.00,0.049
675.00,0.049
676.00,0.049
677.00,0.049
678.00,0.049
679.00,0.049
680.00,0.049
681.00,0.049
682.00,0.049
683.00,0.049
684.00,0.049
685.00,0.049
686.00,0.048
687.00,0.048
688.00,0.048
689.00,0.048
690.00,0.049
691.00,0.049
692.00,0.048
693.00,0.048
694.00,0.048
695.00,0.048
696.00,0.048
697.00,0.048
698.00,0.048
699.00,0.049
700.00,0.049
701.00,0.049
702.00,0.049
703.00,0.049
704.00,0.049
705.00,0.049
706.00,0.049
707.00,0.049
708.00,0.049
709.00,0.049
710.00,0.049
711.00,0.049
712.00,0.049
713.00,0.049
714.00,0.049
715.00,0.050
716.00,0.050
717.00,0.050
718.00,0.050
719.00,0.050
720.00,0.050
721.00,0.051
722.00,0.051
723.00,0.051
724.00,0.051
725.00,0.052
726.00,0.052
727.00,0.052
728.00,0.052
729.00,0.053
730.00,0.053
731.00,0.054
732.00,0.054
733.00,0.055
734.00,0.055
735.00,0.055
736.00,0.056
737.00,0.056
738.00,0.056
739.00,0.056
740.00,0.056
741.00,0.056
742.00,0.056
743.00,0.056
744.00,0.056
745.00,0.056
746.00,0.056
747.00,0.056
748.00,0.056
749.00,0.056
750.00,0.056
751.00,0.056
752.00,0.056
753.00,0.056
754.00,0.056
755.00,0.056
756.00,0.056
757.00,0.056
758.00,0.056
759.00,0.056
760.00,0.056
761.00,0.056
762.00,0.056
763.00,0.056
764.00,0.056
765.00,0.056
766.00,0.056
767.00,0.056
768.00,0.056
769.00,0.055
770.00,0.055
771.00,0.055
772.00,0.055
773.00,0.055
774.00,0.055
775.00,0.055
776.00,0.055
777.00,0.055
778.00,0.055
779.00,0.055
780.00,0.055
781.00,0.054
782.00,0.054
783.00,0.054
784.00,0.054
785.00,0.054
786.00,0.054
787.00,0.054
788.00,0.054
789.00,0.053
790.00,0.053
791.00,0.053
792.00,0.053
793.00,0.053
794.00,0.053
795.00,0.053
796.00,0.053
797.00,0.053
798.00,0.052
799.00,0.052
800.00,0.052
801.00,0.052
802.00,0.052
803.00,0.052
804.00,0.052
805.00,0.052
806.00,0.052
807.00,0.052
808.00,0.052
809.00,0.052
810.00,0.052
811.00,0.052
812.00,0.052
813.00,0.052
814.00,0.052
815.00,0.052
816.00,0.052
817.00,0.052
818.00,0.052
819.00,0.052
820.00,0.052
821.00,0.052
822.00,0.053
823.00,0.053
824.00,0.053
825.00,0.053
826.00,0.054
827.00,0.054
828.00,0.055
829.00,0.055
830.00,0.056
831.00,0.056
832.00,0.057
833.00,0.058
834.00,0.058
835.00,0.058
836.00,0.058
837.00,0.059
838.00,0.059
839.00,0.059
840.00,0.059
841.00,0.059
842.00,0.059
843.00,0.059
844.00,0.059
845.00,0.059
846.00,0.060
847.00,0.060
848.00,0.060
849.00,0.060
850.00,0.060
851.00,0.060
852.00,0.060
853.00,0.060
854.00,0.060
855.00,0.060
856.00,0.060
857.00,0.060
858.00,0.061
859.00,0.061
860.00,0.061
861.00,0.061
862.00,0.061
863.00,0.061
864.00,0.061
865.00,0.061
866.00,0.061
867.00,0.061
868.00,0.061
869.00,0.061
870.00,0.062
871.00,0.062
872.00,0.062
873.00,0.062
874.00,0.062
875.00,0.063
876.00,0.063
877.00,0.063
878.00,0.063
879.00,0.063
880.00,0.064
881.00,0.064
882.00,0.064
883.00,0.064
884.00,0.064
885.00,0.065
886.00,0.065
887.00,0.065
888.00,0.065
889.00,0.066
890.00,0.066
891.00,0.066
892.00,0.066
893.00,0.066
894.00,0.067
895.00,0.067
896.00,0.067
897.00,0.068
898.00,0.068
899.00,0.069
900.00,0.069
