"Vieux-MontrealRousse50x - RawData"
"Wavelength nm.","Abs."
190.00,3.542
191.00,3.821
192.00,3.744
193.00,3.835
194.00,3.940
195.00,3.901
196.00,3.938
197.00,4.000
198.00,3.971
199.00,3.957
200.00,3.940
201.00,3.893
202.00,3.980
203.00,3.931
204.00,3.923
205.00,3.870
206.00,3.649
207.00,3.498
208.00,3.489
209.00,3.231
210.00,3.095
211.00,2.963
212.00,2.821
213.00,2.727
214.00,2.632
215.00,2.509
216.00,2.408
217.00,2.313
218.00,2.208
219.00,2.106
220.00,2.011
221.00,1.924
222.00,1.841
223.00,1.759
224.00,1.678
225.00,1.597
226.00,1.517
227.00,1.437
228.00,1.359
229.00,1.289
230.00,1.223
231.00,1.162
232.00,1.107
233.00,1.057
234.00,1.013
235.00,0.974
236.00,0.940
237.00,0.911
238.00,0.886
239.00,0.864
240.00,0.846
241.00,0.832
242.00,0.823
243.00,0.816
244.00,0.812
245.00,0.810
246.00,0.810
247.00,0.810
248.00,0.813
249.00,0.815
250.00,0.819
251.00,0.823
252.00,0.828
253.00,0.833
254.00,0.838
255.00,0.844
256.00,0.849
257.00,0.853
258.00,0.856
259.00,0.858
260.00,0.860
261.00,0.861
262.00,0.863
263.00,0.865
264.00,0.868
265.00,0.869
266.00,0.870
267.00,0.870
268.00,0.870
269.00,0.868
270.00,0.865
271.00,0.862
272.00,0.858
273.00,0.854
274.00,0.848
275.00,0.842
276.00,0.835
277.00,0.826
278.00,0.816
279.00,0.806
280.00,0.795
281.00,0.784
282.00,0.771
283.00,0.758
284.00,0.743
285.00,0.728
286.00,0.713
287.00,0.698
288.00,0.682
289.00,0.666
290.00,0.648
291.00,0.631
292.00,0.615
293.00,0.601
294.00,0.589
295.00,0.577
296.00,0.566
297.00,0.556
298.00,0.546
299.00,0.536
300.00,0.527
301.00,0.518
302.00,0.510
303.00,0.502
304.00,0.494
305.00,0.486
306.00,0.479
307.00,0.471
308.00,0.464
309.00,0.457
310.00,0.449
311.00,0.442
312.00,0.435
313.00,0.429
314.00,0.422
315.00,0.415
316.00,0.409
317.00,0.402
318.00,0.395
319.00,0.389
320.00,0.382
321.00,0.376
322.00,0.369
323.00,0.362
324.00,0.356
325.00,0.349
326.00,0.342
327.00,0.335
328.00,0.329
329.00,0.322
330.00,0.315
331.00,0.308
332.00,0.302
333.00,0.296
334.00,0.289
335.00,0.283
336.00,0.277
337.00,0.271
338.00,0.265
339.00,0.260
340.00,0.254
341.00,0.247
342.00,0.241
343.00,0.236
344.00,0.231
345.00,0.226
346.00,0.221
347.00,0.216
348.00,0.211
349.00,0.206
350.00,0.202
351.00,0.198
352.00,0.193
353.00,0.190
354.00,0.186
355.00,0.182
356.00,0.178
357.00,0.175
358.00,0.171
359.00,0.168
360.00,0.165
361.00,0.162
362.00,0.158
363.00,0.156
364.00,0.153
365.00,0.150
366.00,0.148
367.00,0.146
368.00,0.143
369.00,0.140
370.00,0.138
371.00,0.136
372.00,0.134
373.00,0.132
374.00,0.130
375.00,0.127
376.00,0.125
377.00,0.123
378.00,0.121
379.00,0.119
380.00,0.118
381.00,0.116
382.00,0.114
383.00,0.112
384.00,0.111
385.00,0.109
386.00,0.108
387.00,0.106
388.00,0.105
389.00,0.103
390.00,0.102
391.00,0.100
392.00,0.099
393.00,0.098
394.00,0.097
395.00,0.095
396.00,0.094
397.00,0.093
398.00,0.092
399.00,0.091
400.00,0.090
401.00,0.089
402.00,0.088
403.00,0.087
404.00,0.086
405.00,0.085
406.00,0.084
407.00,0.084
408.00,0.083
409.00,0.082
410.00,0.081
411.00,0.080
412.00,0.079
413.00,0.079
414.00,0.078
415.00,0.077
416.00,0.076
417.00,0.076
418.00,0.075
419.00,0.075
420.00,0.074
421.00,0.073
422.00,0.073
423.00,0.072
424.00,0.072
425.00,0.071
426.00,0.070
427.00,0.070
428.00,0.069
429.00,0.069
430.00,0.068
431.00,0.068
432.00,0.067
433.00,0.067
434.00,0.066
435.00,0.066
436.00,0.065
437.00,0.065
438.00,0.064
439.00,0.064
440.00,0.064
441.00,0.063
442.00,0.063
443.00,0.062
444.00,0.062
445.00,0.062
446.00,0.061
447.00,0.061
448.00,0.060
449.00,0.060
450.00,0.060
451.00,0.059
452.00,0.059
453.00,0.059
454.00,0.058
455.00,0.058
456.00,0.058
457.00,0.057
458.00,0.057
459.00,0.057
460.00,0.056
461.00,0.056
462.00,0.056
463.00,0.055
464.00,0.055
465.00,0.055
466.00,0.055
467.00,0.054
468.00,0.054
469.00,0.054
470.00,0.054
471.00,0.053
472.00,0.053
473.00,0.053
474.00,0.052
475.00,0.052
476.00,0.052
477.00,0.052
478.00,0.051
479.00,0.051
480.00,0.051
481.00,0.051
482.00,0.050
483.00,0.050
484.00,0.050
485.00,0.050
486.00,0.049
487.00,0.049
488.00,0.049
489.00,0.049
490.00,0.049
491.00,0.048
492.00,0.048
493.00,0.048
494.00,0.048
495.00,0.048
496.00,0.047
497.00,0.047
498.00,0.047
499.00,0.047
500.00,0.047
501.00,0.047
502.00,0.046
503.00,0.046
504.00,0.046
505.00,0.046
506.00,0.046
507.00,0.046
508.00,0.045
509.00,0.045
510.00,0.045
511.00,0.045
512.00,0.045
513.00,0.045
514.00,0.044
515.00,0.044
516.00,0.044
517.00,0.044
518.00,0.044
519.00,0.044
520.00,0.044
521.00,0.043
522.00,0.043
523.00,0.043
524.00,0.043
525.00,0.043
526.00,0.043
527.00,0.043
528.00,0.043
529.00,0.042
530.00,0.042
531.00,0.042
532.00,0.042
533.00,0.042
534.00,0.042
535.00,0.042
536.00,0.042
537.00,0.042
538.00,0.041
539.00,0.041
540.00,0.041
541.00,0.041
542.00,0.041
543.00,0.041
544.00,0.041
545.00,0.041
546.00,0.041
547.00,0.041
548.00,0.041
549.00,0.040
550.00,0.040
551.00,0.040
552.00,0.040
553.00,0.040
554.00,0.040
555.00,0.040
556.00,0.040
557.00,0.040
558.00,0.040
559.00,0.040
560.00,0.040
561.00,0.039
562.00,0.039
563.00,0.039
564.00,0.039
565.00,0.039
566.00,0.039
567.00,0.039
568.00,0.039
569.00,0.039
570.00,0.039
571.00,0.039
572.00,0.039
573.00,0.039
574.00,0.039
575.00,0.039
576.00,0.039
577.00,0.038
578.00,0.038
579.00,0.038
580.00,0.038
581.00,0.038
582.00,0.038
583.00,0.038
584.00,0.038
585.00,0.038
586.00,0.038
587.00,0.038
588.00,0.038
589.00,0.038
590.00,0.038
591.00,0.038
592.00,0.038
593.00,0.038
594.00,0.038
595.00,0.038
596.00,0.038
597.00,0.038
598.00,0.038
599.00,0.038
600.00,0.038
601.00,0.038
602.00,0.038
603.00,0.038
604.00,0.038
605.00,0.038
606.00,0.038
607.00,0.038
608.00,0.038
609.00,0.038
610.00,0.038
611.00,0.038
612.00,0.037
613.00,0.037
614.00,0.037
615.00,0.037
616.00,0.037
617.00,0.037
618.00,0.037
619.00,0.037
620.00,0.037
621.00,0.037
622.00,0.037
623.00,0.037
624.00,0.037
625.00,0.037
626.00,0.037
627.00,0.037
628.00,0.037
629.00,0.037
630.00,0.037
631.00,0.037
632.00,0.037
633.00,0.037
634.00,0.037
635.00,0.037
636.00,0.037
637.00,0.037
638.00,0.037
639.00,0.037
640.00,0.037
641.00,0.037
642.00,0.037
643.00,0.036
644.00,0.036
645.00,0.036
646.00,0.036
647.00,0.036
648.00,0.037
649.00,0.036
650.00,0.036
651.00,0.036
652.00,0.036
653.00,0.036
654.00,0.036
655.00,0.037
656.00,0.036
657.00,0.036
658.00,0.037
659.00,0.036
660.00,0.037
661.00,0.036
662.00,0.036
663.00,0.036
664.00,0.036
665.00,0.036
666.00,0.036
667.00,0.036
668.00,0.036
669.00,0.036
670.00,0.036
671.00,0.036
672.00,0.036
673.00,0.036
674.00,0.036
675.00,0.036
676.00,0.036
677.00,0.036
678.00,0.036
679.00,0.036
680.00,0.036
681.00,0.036
682.00,0.036
683.00,0.036
684.00,0.036
685.00,0.036
686.00,0.036
687.00,0.036
688.00,0.036
689.00,0.036
690.00,0.036
691.00,0.036
692.00,0.036
693.00,0.036
694.00,0.036
695.00,0.036
696.00,0.036
697.00,0.036
698.00,0.036
699.00,0.036
700.00,0.037
701.00,0.037
702.00,0.037
703.00,0.037
704.00,0.037
705.00,0.037
706.00,0.037
707.00,0.037
708.00,0.037
709.00,0.037
710.00,0.037
711.00,0.037
712.00,0.037
713.00,0.038
714.00,0.038
715.00,0.038
716.00,0.038
717.00,0.038
718.00,0.038
719.00,0.038
720.00,0.039
721.00,0.039
722.00,0.039
723.00,0.039
724.00,0.040
725.00,0.040
726.00,0.040
727.00,0.040
728.00,0.041
729.00,0.041
730.00,0.041
731.00,0.042
732.00,0.042
733.00,0.043
734.00,0.043
735.00,0.043
736.00,0.044
737.00,0.044
738.00,0.044
739.00,0.044
740.00,0.044
741.00,0.044
742.00,0.045
743.00,0.045
744.00,0.045
745.00,0.045
746.00,0.045
747.00,0.045
748.00,0.045
749.00,0.045
750.00,0.045
751.00,0.045
752.00,0.045
753.00,0.045
754.00,0.045
755.00,0.045
756.00,0.045
757.00,0.045
758.00,0.045
759.00,0.045
760.00,0.045
761.00,0.045
762.00,0.045
763.00,0.045
764.00,0.045
765.00,0.045
766.00,0.045
767.00,0.045
768.00,0.045
769.00,0.045
770.00,0.045
771.00,0.045
772.00,0.045
773.00,0.045
774.00,0.044
775.00,0.044
776.00,0.045
777.00,0.044
778.00,0.044
779.00,0.044
780.00,0.044
781.00,0.044
782.00,0.044
783.00,0.044
784.00,0.044
785.00,0.044
786.00,0.044
787.00,0.044
788.00,0.044
789.00,0.043
790.00,0.043
791.00,0.043
792.00,0.043
793.00,0.043
794.00,0.043
795.00,0.043
796.00,0.043
797.00,0.043
798.00,0.043
799.00,0.042
800.00,0.042
801.00,0.042
802.00,0.042
803.00,0.042
804.00,0.042
805.00,0.042
806.00,0.042
807.00,0.042
808.00,0.042
809.00,0.042
810.00,0.042
811.00,0.042
812.00,0.042
813.00,0.042
814.00,0.042
815.00,0.042
816.00,0.042
817.00,0.042
818.00,0.042
819.00,0.042
820.00,0.042
821.00,0.043
822.00,0.043
823.00,0.043
824.00,0.043
825.00,0.044
826.00,0.044
827.00,0.044
828.00,0.045
829.00,0.045
830.00,0.046
831.00,0.046
832.00,0.047
833.00,0.047
834.00,0.047
835.00,0.048
836.00,0.048
837.00,0.048
838.00,0.048
839.00,0.048
840.00,0.048
841.00,0.049
842.00,0.049
843.00,0.049
844.00,0.049
845.00,0.049
846.00,0.049
847.00,0.049
848.00,0.049
849.00,0.050
850.00,0.050
851.00,0.050
852.00,0.050
853.00,0.050
854.00,0.050
855.00,0.050
856.00,0.051
857.00,0.051
858.00,0.051
859.00,0.051
860.00,0.051
861.00,0.051
862.00,0.051
863.00,0.051
864.00,0.052
865.00,0.052
866.00,0.052
867.00,0.052
868.00,0.052
869.00,0.052
870.00,0.053
871.00,0.053
872.00,0.053
873.00,0.053
874.00,0.053
875.00,0.053
876.00,0.054
877.00,0.054
878.00,0.054
879.00,0.054
880.00,0.055
881.00,0.055
882.00,0.055
883.00,0.055
884.00,0.056
885.00,0.056
886.00,0.056
887.00,0.056
888.00,0.057
889.00,0.057
890.00,0.057
891.00,0.057
892.00,0.058
893.00,0.058
894.00,0.058
895.00,0.058
896.00,0.059
897.00,0.059
898.00,0.059
899.00,0.059
900.00,0.059
