"VroodenSchwartzbier_100x - RawData"
"Wavelength nm.","Abs."
190.00,2.660
191.00,2.770
192.00,2.883
193.00,3.054
194.00,3.125
195.00,3.094
196.00,3.010
197.00,3.104
198.00,3.095
199.00,3.039
200.00,3.000
201.00,2.909
202.00,2.896
203.00,2.823
204.00,2.698
205.00,2.596
206.00,2.472
207.00,2.381
208.00,2.293
209.00,2.191
210.00,2.112
211.00,2.032
212.00,1.952
213.00,1.872
214.00,1.802
215.00,1.736
216.00,1.669
217.00,1.606
218.00,1.545
219.00,1.485
220.00,1.426
221.00,1.372
222.00,1.318
223.00,1.265
224.00,1.213
225.00,1.163
226.00,1.114
227.00,1.064
228.00,1.017
229.00,0.973
230.00,0.931
231.00,0.892
232.00,0.857
233.00,0.824
234.00,0.796
235.00,0.771
236.00,0.750
237.00,0.731
238.00,0.715
239.00,0.701
240.00,0.689
241.00,0.680
242.00,0.672
243.00,0.667
244.00,0.663
245.00,0.660
246.00,0.658
247.00,0.656
248.00,0.656
249.00,0.655
250.00,0.656
251.00,0.657
252.00,0.658
253.00,0.660
254.00,0.661
255.00,0.662
256.00,0.664
257.00,0.665
258.00,0.666
259.00,0.666
260.00,0.667
261.00,0.667
262.00,0.668
263.00,0.668
264.00,0.669
265.00,0.669
266.00,0.669
267.00,0.669
268.00,0.668
269.00,0.667
270.00,0.665
271.00,0.663
272.00,0.661
273.00,0.659
274.00,0.655
275.00,0.651
276.00,0.646
277.00,0.640
278.00,0.634
279.00,0.627
280.00,0.619
281.00,0.612
282.00,0.603
283.00,0.594
284.00,0.585
285.00,0.574
286.00,0.564
287.00,0.554
288.00,0.543
289.00,0.532
290.00,0.521
291.00,0.509
292.00,0.499
293.00,0.489
294.00,0.480
295.00,0.472
296.00,0.464
297.00,0.457
298.00,0.450
299.00,0.443
300.00,0.437
301.00,0.430
302.00,0.424
303.00,0.418
304.00,0.412
305.00,0.406
306.00,0.400
307.00,0.394
308.00,0.388
309.00,0.382
310.00,0.377
311.00,0.371
312.00,0.366
313.00,0.361
314.00,0.356
315.00,0.351
316.00,0.346
317.00,0.342
318.00,0.337
319.00,0.332
320.00,0.327
321.00,0.323
322.00,0.318
323.00,0.314
324.00,0.309
325.00,0.304
326.00,0.300
327.00,0.295
328.00,0.291
329.00,0.287
330.00,0.282
331.00,0.278
332.00,0.274
333.00,0.270
334.00,0.266
335.00,0.262
336.00,0.258
337.00,0.254
338.00,0.251
339.00,0.247
340.00,0.244
341.00,0.239
342.00,0.236
343.00,0.232
344.00,0.228
345.00,0.226
346.00,0.223
347.00,0.220
348.00,0.216
349.00,0.213
350.00,0.210
351.00,0.207
352.00,0.204
353.00,0.202
354.00,0.199
355.00,0.196
356.00,0.194
357.00,0.191
358.00,0.188
359.00,0.186
360.00,0.183
361.00,0.181
362.00,0.179
363.00,0.177
364.00,0.175
365.00,0.172
366.00,0.170
367.00,0.168
368.00,0.166
369.00,0.164
370.00,0.162
371.00,0.161
372.00,0.159
373.00,0.157
374.00,0.155
375.00,0.154
376.00,0.152
377.00,0.150
378.00,0.148
379.00,0.146
380.00,0.145
381.00,0.143
382.00,0.142
383.00,0.140
384.00,0.139
385.00,0.137
386.00,0.136
387.00,0.135
388.00,0.133
389.00,0.132
390.00,0.130
391.00,0.129
392.00,0.128
393.00,0.127
394.00,0.125
395.00,0.124
396.00,0.123
397.00,0.122
398.00,0.121
399.00,0.120
400.00,0.119
401.00,0.118
402.00,0.117
403.00,0.116
404.00,0.115
405.00,0.114
406.00,0.113
407.00,0.112
408.00,0.111
409.00,0.110
410.00,0.109
411.00,0.108
412.00,0.107
413.00,0.106
414.00,0.105
415.00,0.105
416.00,0.104
417.00,0.103
418.00,0.102
419.00,0.102
420.00,0.101
421.00,0.100
422.00,0.099
423.00,0.099
424.00,0.098
425.00,0.097
426.00,0.096
427.00,0.096
428.00,0.095
429.00,0.094
430.00,0.094
431.00,0.093
432.00,0.092
433.00,0.092
434.00,0.091
435.00,0.090
436.00,0.090
437.00,0.089
438.00,0.089
439.00,0.088
440.00,0.087
441.00,0.087
442.00,0.086
443.00,0.086
444.00,0.085
445.00,0.085
446.00,0.084
447.00,0.084
448.00,0.083
449.00,0.083
450.00,0.082
451.00,0.082
452.00,0.081
453.00,0.081
454.00,0.080
455.00,0.080
456.00,0.079
457.00,0.079
458.00,0.078
459.00,0.078
460.00,0.077
461.00,0.077
462.00,0.077
463.00,0.076
464.00,0.076
465.00,0.075
466.00,0.075
467.00,0.074
468.00,0.074
469.00,0.074
470.00,0.073
471.00,0.073
472.00,0.072
473.00,0.072
474.00,0.072
475.00,0.071
476.00,0.071
477.00,0.071
478.00,0.070
479.00,0.070
480.00,0.069
481.00,0.069
482.00,0.069
483.00,0.068
484.00,0.068
485.00,0.068
486.00,0.067
487.00,0.067
488.00,0.067
489.00,0.066
490.00,0.066
491.00,0.066
492.00,0.065
493.00,0.065
494.00,0.065
495.00,0.065
496.00,0.064
497.00,0.064
498.00,0.064
499.00,0.063
500.00,0.063
501.00,0.063
502.00,0.062
503.00,0.062
504.00,0.062
505.00,0.062
506.00,0.061
507.00,0.061
508.00,0.061
509.00,0.061
510.00,0.060
511.00,0.060
512.00,0.060
513.00,0.060
514.00,0.059
515.00,0.059
516.00,0.059
517.00,0.059
518.00,0.058
519.00,0.058
520.00,0.058
521.00,0.058
522.00,0.057
523.00,0.057
524.00,0.057
525.00,0.057
526.00,0.057
527.00,0.056
528.00,0.056
529.00,0.056
530.00,0.056
531.00,0.055
532.00,0.055
533.00,0.055
534.00,0.055
535.00,0.055
536.00,0.055
537.00,0.054
538.00,0.054
539.00,0.054
540.00,0.054
541.00,0.054
542.00,0.053
543.00,0.053
544.00,0.053
545.00,0.053
546.00,0.053
547.00,0.052
548.00,0.052
549.00,0.052
550.00,0.052
551.00,0.052
552.00,0.052
553.00,0.052
554.00,0.051
555.00,0.051
556.00,0.051
557.00,0.051
558.00,0.051
559.00,0.051
560.00,0.051
561.00,0.050
562.00,0.050
563.00,0.050
564.00,0.050
565.00,0.050
566.00,0.050
567.00,0.050
568.00,0.049
569.00,0.049
570.00,0.049
571.00,0.049
572.00,0.049
573.00,0.049
574.00,0.049
575.00,0.049
576.00,0.048
577.00,0.048
578.00,0.048
579.00,0.048
580.00,0.048
581.00,0.048
582.00,0.048
583.00,0.048
584.00,0.048
585.00,0.047
586.00,0.047
587.00,0.047
588.00,0.047
589.00,0.047
590.00,0.047
591.00,0.047
592.00,0.047
593.00,0.047
594.00,0.047
595.00,0.047
596.00,0.047
597.00,0.047
598.00,0.046
599.00,0.046
600.00,0.046
601.00,0.046
602.00,0.046
603.00,0.046
604.00,0.046
605.00,0.046
606.00,0.046
607.00,0.046
608.00,0.046
609.00,0.046
610.00,0.046
611.00,0.046
612.00,0.046
613.00,0.046
614.00,0.045
615.00,0.045
616.00,0.045
617.00,0.045
618.00,0.045
619.00,0.045
620.00,0.045
621.00,0.045
622.00,0.045
623.00,0.045
624.00,0.045
625.00,0.044
626.00,0.044
627.00,0.044
628.00,0.044
629.00,0.044
630.00,0.044
631.00,0.044
632.00,0.044
633.00,0.044
634.00,0.044
635.00,0.044
636.00,0.044
637.00,0.044
638.00,0.044
639.00,0.044
640.00,0.043
641.00,0.043
642.00,0.043
643.00,0.043
644.00,0.043
645.00,0.043
646.00,0.043
647.00,0.043
648.00,0.043
649.00,0.043
650.00,0.043
651.00,0.043
652.00,0.043
653.00,0.043
654.00,0.043
655.00,0.043
656.00,0.043
657.00,0.043
658.00,0.043
659.00,0.043
660.00,0.043
661.00,0.043
662.00,0.043
663.00,0.043
664.00,0.043
665.00,0.042
666.00,0.042
667.00,0.042
668.00,0.042
669.00,0.042
670.00,0.042
671.00,0.042
672.00,0.042
673.00,0.042
674.00,0.042
675.00,0.042
676.00,0.042
677.00,0.042
678.00,0.042
679.00,0.042
680.00,0.042
681.00,0.042
682.00,0.042
683.00,0.042
684.00,0.042
685.00,0.042
686.00,0.042
687.00,0.042
688.00,0.042
689.00,0.042
690.00,0.042
691.00,0.042
692.00,0.042
693.00,0.042
694.00,0.042
695.00,0.042
696.00,0.042
697.00,0.042
698.00,0.042
699.00,0.042
700.00,0.042
701.00,0.042
702.00,0.042
703.00,0.042
704.00,0.042
705.00,0.042
706.00,0.042
707.00,0.042
708.00,0.042
709.00,0.042
710.00,0.042
711.00,0.042
712.00,0.042
713.00,0.042
714.00,0.043
715.00,0.043
716.00,0.043
717.00,0.043
718.00,0.043
719.00,0.043
720.00,0.044
721.00,0.044
722.00,0.044
723.00,0.044
724.00,0.044
725.00,0.045
726.00,0.045
727.00,0.045
728.00,0.046
729.00,0.046
730.00,0.047
731.00,0.047
732.00,0.048
733.00,0.048
734.00,0.048
735.00,0.049
736.00,0.049
737.00,0.049
738.00,0.049
739.00,0.049
740.00,0.050
741.00,0.050
742.00,0.050
743.00,0.050
744.00,0.050
745.00,0.050
746.00,0.050
747.00,0.049
748.00,0.050
749.00,0.050
750.00,0.049
751.00,0.049
752.00,0.049
753.00,0.049
754.00,0.049
755.00,0.049
756.00,0.049
757.00,0.049
758.00,0.049
759.00,0.049
760.00,0.050
761.00,0.049
762.00,0.049
763.00,0.049
764.00,0.049
765.00,0.049
766.00,0.049
767.00,0.049
768.00,0.049
769.00,0.049
770.00,0.049
771.00,0.049
772.00,0.049
773.00,0.048
774.00,0.048
775.00,0.048
776.00,0.048
777.00,0.048
778.00,0.048
779.00,0.048
780.00,0.048
781.00,0.048
782.00,0.048
783.00,0.048
784.00,0.047
785.00,0.047
786.00,0.047
787.00,0.047
788.00,0.047
789.00,0.047
790.00,0.047
791.00,0.047
792.00,0.047
793.00,0.046
794.00,0.046
795.00,0.046
796.00,0.046
797.00,0.046
798.00,0.046
799.00,0.046
800.00,0.046
801.00,0.046
802.00,0.046
803.00,0.045
804.00,0.045
805.00,0.045
806.00,0.045
807.00,0.045
808.00,0.045
809.00,0.045
810.00,0.045
811.00,0.045
812.00,0.045
813.00,0.045
814.00,0.046
815.00,0.045
816.00,0.046
817.00,0.046
818.00,0.046
819.00,0.046
820.00,0.046
821.00,0.046
822.00,0.046
823.00,0.047
824.00,0.047
825.00,0.047
826.00,0.048
827.00,0.048
828.00,0.049
829.00,0.049
830.00,0.050
831.00,0.050
832.00,0.051
833.00,0.051
834.00,0.051
835.00,0.052
836.00,0.052
837.00,0.052
838.00,0.052
839.00,0.052
840.00,0.052
841.00,0.053
842.00,0.053
843.00,0.053
844.00,0.053
845.00,0.053
846.00,0.053
847.00,0.053
848.00,0.053
849.00,0.053
850.00,0.054
851.00,0.054
852.00,0.054
853.00,0.054
854.00,0.054
855.00,0.054
856.00,0.054
857.00,0.054
858.00,0.054
859.00,0.054
860.00,0.055
861.00,0.055
862.00,0.055
863.00,0.055
864.00,0.055
865.00,0.055
866.00,0.055
867.00,0.055
868.00,0.055
869.00,0.056
870.00,0.056
871.00,0.056
872.00,0.056
873.00,0.056
874.00,0.056
875.00,0.057
876.00,0.057
877.00,0.057
878.00,0.057
879.00,0.057
880.00,0.058
881.00,0.058
882.00,0.058
883.00,0.058
884.00,0.059
885.00,0.059
886.00,0.059
887.00,0.059
888.00,0.059
889.00,0.060
890.00,0.060
891.00,0.060
892.00,0.060
893.00,0.061
894.00,0.061
895.00,0.061
896.00,0.061
897.00,0.062
898.00,0.062
899.00,0.062
900.00,0.062
