"BerlinerWeissAleSure50x - RawData"
"Wavelength nm.","Abs."
190.00,2.779
191.00,3.004
192.00,3.028
193.00,3.177
194.00,3.504
195.00,3.455
196.00,3.348
197.00,3.264
198.00,3.427
199.00,3.439
200.00,3.164
201.00,3.093
202.00,3.012
203.00,2.845
204.00,2.701
205.00,2.556
206.00,2.426
207.00,2.292
208.00,2.164
209.00,2.049
210.00,1.948
211.00,1.852
212.00,1.762
213.00,1.680
214.00,1.600
215.00,1.528
216.00,1.459
217.00,1.393
218.00,1.329
219.00,1.267
220.00,1.207
221.00,1.152
222.00,1.097
223.00,1.041
224.00,0.985
225.00,0.930
226.00,0.874
227.00,0.817
228.00,0.761
229.00,0.707
230.00,0.657
231.00,0.610
232.00,0.567
233.00,0.528
234.00,0.494
235.00,0.465
236.00,0.439
237.00,0.417
238.00,0.399
239.00,0.383
240.00,0.370
241.00,0.360
242.00,0.352
243.00,0.346
244.00,0.341
245.00,0.337
246.00,0.335
247.00,0.333
248.00,0.332
249.00,0.331
250.00,0.331
251.00,0.331
252.00,0.332
253.00,0.332
254.00,0.333
255.00,0.334
256.00,0.335
257.00,0.337
258.00,0.338
259.00,0.339
260.00,0.340
261.00,0.341
262.00,0.342
263.00,0.343
264.00,0.344
265.00,0.344
266.00,0.344
267.00,0.343
268.00,0.342
269.00,0.341
270.00,0.339
271.00,0.337
272.00,0.335
273.00,0.332
274.00,0.329
275.00,0.325
276.00,0.321
277.00,0.316
278.00,0.310
279.00,0.305
280.00,0.299
281.00,0.294
282.00,0.288
283.00,0.282
284.00,0.275
285.00,0.268
286.00,0.261
287.00,0.255
288.00,0.248
289.00,0.242
290.00,0.236
291.00,0.229
292.00,0.223
293.00,0.217
294.00,0.212
295.00,0.208
296.00,0.204
297.00,0.200
298.00,0.197
299.00,0.194
300.00,0.190
301.00,0.188
302.00,0.185
303.00,0.183
304.00,0.181
305.00,0.179
306.00,0.177
307.00,0.176
308.00,0.174
309.00,0.173
310.00,0.172
311.00,0.171
312.00,0.170
313.00,0.169
314.00,0.168
315.00,0.168
316.00,0.167
317.00,0.166
318.00,0.165
319.00,0.165
320.00,0.164
321.00,0.163
322.00,0.162
323.00,0.161
324.00,0.160
325.00,0.158
326.00,0.157
327.00,0.156
328.00,0.154
329.00,0.153
330.00,0.151
331.00,0.149
332.00,0.147
333.00,0.145
334.00,0.143
335.00,0.142
336.00,0.140
337.00,0.138
338.00,0.136
339.00,0.134
340.00,0.133
341.00,0.129
342.00,0.127
343.00,0.125
344.00,0.123
345.00,0.121
346.00,0.119
347.00,0.117
348.00,0.115
349.00,0.114
350.00,0.112
351.00,0.110
352.00,0.108
353.00,0.107
354.00,0.105
355.00,0.103
356.00,0.102
357.00,0.101
358.00,0.099
359.00,0.098
360.00,0.096
361.00,0.095
362.00,0.094
363.00,0.093
364.00,0.092
365.00,0.091
366.00,0.090
367.00,0.089
368.00,0.088
369.00,0.087
370.00,0.086
371.00,0.085
372.00,0.084
373.00,0.084
374.00,0.083
375.00,0.082
376.00,0.081
377.00,0.081
378.00,0.080
379.00,0.079
380.00,0.079
381.00,0.079
382.00,0.078
383.00,0.077
384.00,0.077
385.00,0.077
386.00,0.076
387.00,0.076
388.00,0.075
389.00,0.075
390.00,0.075
391.00,0.074
392.00,0.074
393.00,0.074
394.00,0.073
395.00,0.073
396.00,0.073
397.00,0.073
398.00,0.072
399.00,0.072
400.00,0.072
401.00,0.072
402.00,0.071
403.00,0.071
404.00,0.071
405.00,0.071
406.00,0.070
407.00,0.070
408.00,0.070
409.00,0.070
410.00,0.070
411.00,0.069
412.00,0.069
413.00,0.069
414.00,0.069
415.00,0.069
416.00,0.068
417.00,0.069
418.00,0.069
419.00,0.068
420.00,0.068
421.00,0.068
422.00,0.068
423.00,0.068
424.00,0.068
425.00,0.068
426.00,0.067
427.00,0.067
428.00,0.067
429.00,0.067
430.00,0.067
431.00,0.067
432.00,0.067
433.00,0.067
434.00,0.066
435.00,0.066
436.00,0.066
437.00,0.066
438.00,0.066
439.00,0.066
440.00,0.066
441.00,0.066
442.00,0.065
443.00,0.065
444.00,0.065
445.00,0.065
446.00,0.065
447.00,0.065
448.00,0.065
449.00,0.065
450.00,0.065
451.00,0.064
452.00,0.064
453.00,0.064
454.00,0.064
455.00,0.064
456.00,0.064
457.00,0.064
458.00,0.064
459.00,0.064
460.00,0.064
461.00,0.064
462.00,0.063
463.00,0.063
464.00,0.063
465.00,0.063
466.00,0.063
467.00,0.063
468.00,0.063
469.00,0.063
470.00,0.063
471.00,0.063
472.00,0.063
473.00,0.062
474.00,0.062
475.00,0.062
476.00,0.062
477.00,0.062
478.00,0.062
479.00,0.062
480.00,0.062
481.00,0.062
482.00,0.062
483.00,0.062
484.00,0.062
485.00,0.061
486.00,0.061
487.00,0.061
488.00,0.061
489.00,0.061
490.00,0.061
491.00,0.061
492.00,0.061
493.00,0.061
494.00,0.061
495.00,0.061
496.00,0.061
497.00,0.061
498.00,0.060
499.00,0.060
500.00,0.060
501.00,0.060
502.00,0.060
503.00,0.060
504.00,0.060
505.00,0.060
506.00,0.060
507.00,0.060
508.00,0.060
509.00,0.060
510.00,0.060
511.00,0.060
512.00,0.060
513.00,0.060
514.00,0.060
515.00,0.059
516.00,0.059
517.00,0.059
518.00,0.059
519.00,0.059
520.00,0.059
521.00,0.059
522.00,0.059
523.00,0.059
524.00,0.059
525.00,0.059
526.00,0.059
527.00,0.059
528.00,0.059
529.00,0.059
530.00,0.059
531.00,0.059
532.00,0.059
533.00,0.058
534.00,0.058
535.00,0.058
536.00,0.059
537.00,0.058
538.00,0.058
539.00,0.058
540.00,0.058
541.00,0.058
542.00,0.058
543.00,0.058
544.00,0.058
545.00,0.058
546.00,0.058
547.00,0.058
548.00,0.058
549.00,0.057
550.00,0.057
551.00,0.057
552.00,0.057
553.00,0.057
554.00,0.057
555.00,0.057
556.00,0.057
557.00,0.057
558.00,0.057
559.00,0.057
560.00,0.057
561.00,0.057
562.00,0.057
563.00,0.057
564.00,0.057
565.00,0.057
566.00,0.057
567.00,0.057
568.00,0.057
569.00,0.057
570.00,0.057
571.00,0.057
572.00,0.056
573.00,0.056
574.00,0.056
575.00,0.056
576.00,0.056
577.00,0.056
578.00,0.056
579.00,0.056
580.00,0.056
581.00,0.056
582.00,0.056
583.00,0.056
584.00,0.056
585.00,0.056
586.00,0.056
587.00,0.056
588.00,0.056
589.00,0.056
590.00,0.056
591.00,0.056
592.00,0.056
593.00,0.056
594.00,0.056
595.00,0.056
596.00,0.056
597.00,0.056
598.00,0.056
599.00,0.056
600.00,0.056
601.00,0.056
602.00,0.056
603.00,0.056
604.00,0.056
605.00,0.056
606.00,0.056
607.00,0.056
608.00,0.056
609.00,0.056
610.00,0.056
611.00,0.056
612.00,0.056
613.00,0.056
614.00,0.056
615.00,0.056
616.00,0.056
617.00,0.055
618.00,0.055
619.00,0.055
620.00,0.055
621.00,0.055
622.00,0.055
623.00,0.055
624.00,0.055
625.00,0.055
626.00,0.055
627.00,0.055
628.00,0.055
629.00,0.055
630.00,0.055
631.00,0.055
632.00,0.055
633.00,0.055
634.00,0.055
635.00,0.055
636.00,0.055
637.00,0.055
638.00,0.055
639.00,0.055
640.00,0.055
641.00,0.055
642.00,0.055
643.00,0.055
644.00,0.055
645.00,0.055
646.00,0.055
647.00,0.055
648.00,0.055
649.00,0.055
650.00,0.055
651.00,0.055
652.00,0.055
653.00,0.055
654.00,0.054
655.00,0.054
656.00,0.054
657.00,0.054
658.00,0.054
659.00,0.054
660.00,0.054
661.00,0.054
662.00,0.054
663.00,0.054
664.00,0.054
665.00,0.054
666.00,0.054
667.00,0.054
668.00,0.054
669.00,0.054
670.00,0.054
671.00,0.054
672.00,0.054
673.00,0.054
674.00,0.054
675.00,0.054
676.00,0.054
677.00,0.054
678.00,0.054
679.00,0.054
680.00,0.054
681.00,0.054
682.00,0.054
683.00,0.054
684.00,0.054
685.00,0.054
686.00,0.054
687.00,0.054
688.00,0.054
689.00,0.054
690.00,0.054
691.00,0.054
692.00,0.054
693.00,0.054
694.00,0.054
695.00,0.054
696.00,0.054
697.00,0.054
698.00,0.054
699.00,0.054
700.00,0.054
701.00,0.054
702.00,0.054
703.00,0.054
704.00,0.054
705.00,0.054
706.00,0.054
707.00,0.054
708.00,0.054
709.00,0.054
710.00,0.055
711.00,0.055
712.00,0.055
713.00,0.055
714.00,0.055
715.00,0.055
716.00,0.055
717.00,0.055
718.00,0.056
719.00,0.056
720.00,0.056
721.00,0.056
722.00,0.057
723.00,0.057
724.00,0.057
725.00,0.057
726.00,0.057
727.00,0.058
728.00,0.058
729.00,0.059
730.00,0.059
731.00,0.060
732.00,0.060
733.00,0.060
734.00,0.061
735.00,0.061
736.00,0.062
737.00,0.062
738.00,0.062
739.00,0.062
740.00,0.062
741.00,0.062
742.00,0.062
743.00,0.062
744.00,0.062
745.00,0.062
746.00,0.062
747.00,0.062
748.00,0.062
749.00,0.062
750.00,0.062
751.00,0.062
752.00,0.062
753.00,0.062
754.00,0.062
755.00,0.062
756.00,0.062
757.00,0.062
758.00,0.062
759.00,0.062
760.00,0.062
761.00,0.062
762.00,0.062
763.00,0.062
764.00,0.062
765.00,0.062
766.00,0.062
767.00,0.062
768.00,0.062
769.00,0.062
770.00,0.062
771.00,0.061
772.00,0.061
773.00,0.061
774.00,0.061
775.00,0.061
776.00,0.061
777.00,0.061
778.00,0.061
779.00,0.061
780.00,0.061
781.00,0.060
782.00,0.060
783.00,0.060
784.00,0.060
785.00,0.060
786.00,0.060
787.00,0.060
788.00,0.060
789.00,0.060
790.00,0.059
791.00,0.059
792.00,0.059
793.00,0.059
794.00,0.059
795.00,0.059
796.00,0.059
797.00,0.059
798.00,0.058
799.00,0.058
800.00,0.058
801.00,0.058
802.00,0.058
803.00,0.058
804.00,0.058
805.00,0.058
806.00,0.058
807.00,0.058
808.00,0.058
809.00,0.058
810.00,0.058
811.00,0.058
812.00,0.058
813.00,0.058
814.00,0.058
815.00,0.058
816.00,0.058
817.00,0.058
818.00,0.058
819.00,0.058
820.00,0.058
821.00,0.058
822.00,0.059
823.00,0.059
824.00,0.059
825.00,0.060
826.00,0.060
827.00,0.060
828.00,0.061
829.00,0.062
830.00,0.062
831.00,0.063
832.00,0.063
833.00,0.063
834.00,0.064
835.00,0.064
836.00,0.064
837.00,0.064
838.00,0.064
839.00,0.065
840.00,0.065
841.00,0.065
842.00,0.065
843.00,0.065
844.00,0.065
845.00,0.065
846.00,0.065
847.00,0.065
848.00,0.066
849.00,0.066
850.00,0.066
851.00,0.066
852.00,0.066
853.00,0.066
854.00,0.066
855.00,0.066
856.00,0.066
857.00,0.067
858.00,0.067
859.00,0.067
860.00,0.067
861.00,0.067
862.00,0.067
863.00,0.067
864.00,0.067
865.00,0.067
866.00,0.068
867.00,0.068
868.00,0.068
869.00,0.068
870.00,0.068
871.00,0.068
872.00,0.069
873.00,0.069
874.00,0.069
875.00,0.069
876.00,0.069
877.00,0.070
878.00,0.070
879.00,0.070
880.00,0.070
881.00,0.070
882.00,0.071
883.00,0.071
884.00,0.071
885.00,0.071
886.00,0.072
887.00,0.072
888.00,0.072
889.00,0.072
890.00,0.072
891.00,0.073
892.00,0.073
893.00,0.073
894.00,0.073
895.00,0.074
896.00,0.074
897.00,0.074
898.00,0.074
899.00,0.075
900.00,0.075
